,subjectID,Label,median_p,mean_p,std_p,var_p,slope_p,min_p,max_p,fdmean_p,fdstd_p,sdmean_p,sdstd_p,drange_p,peaks_p,rise_time_p,max_deriv_p,amp_p,decay_time_p,SCR_width_p,auc_p,median_t,mean_t,std_t,var_t,slope_t,min_t,max_t,fdmean_t,fdstd_t,sdmean_t,sdstd_t,drange_t,median_f,mean_f,std_f,var_f,slope_f,min_f,max_f,fdmean_f,fdstd_f,sdmean_f,sdstd_f,drange_f,peaks_f,rise_time_f,max_deriv_f,amp_f,decay_time_f,SCR_width_f,auc_f,bpm,ibi,sdnn,sdsd,rmssd,pnn20,pnn50,hr_mad,sd1,sd2,s,sd1/sd2,breathingrate,lf,hf,lf/hf,median_bvp,mean_bvp,std_bvp,var_bvp,min_bvp,max_bvp,fdmean_bvp,fdstd_bvp,sdmean_bvp,sdstd_bvp,drange_bvp
0,5,1,0.14529624698977317,0.21534404232837598,0.18228967415655084,0.03322952530410148,0.0027461893356447325,0.046148454565374475,0.7297938548728161,0.0003698511663342386,0.02314915800778352,5.658153040811221e-05,0.007681715466226663,0.6836454003074417,5.0,0.639,0.14612271592543513,0.16504548035534974,0.06187499999999999,0.08062499999999999,0.01300988873332957,2.552477306401976,2.556033961616387,0.027525067835380623,0.0007576293593423049,0.0007789114988906923,2.5020738888747722,2.5923565028237245,0.000740691977562613,0.0006596754676795585,-2.7329292880642897e-05,5.592631472580995e-05,0.09028261394895232,4.103358629874661,4.186178559565762,0.18744612485661094,0.03513604972376018,0.003287387326639497,4.016503759413485,4.689453110321425,0.0010355205246918649,0.021865214870147535,3.0764568793073546e-05,0.007200142341695542,0.6729493509079401,5.0,0.642,0.13663526764319797,0.16180286644925895,0.049999999999999996,0.0725,0.016384435184144383,54.46808510638298,1101.5625,78.51465329000696,0.0,140.625,1.0,1.0,54.6875,0.0,0.0,0.0,1.849814896799125,0.22701475595913734,0.0,8851.047968258756,0.0,-8.106003810016794,-0.9706247535248324,64.03756236440276,4100.809393574773,-206.9043409877183,171.68926784033465,0.05470126912550646,3.197943533435187,-5.770025306515667e-05,0.28521275934277984,378.593608828053
1,5,1,0.17140447297099895,0.21845388846665906,0.1817551909911383,0.03303494945222516,-0.00035795376238043536,0.040741049423224276,0.7297938548728161,0.00023310478392376868,0.023413613176198746,0.00014463554549628508,0.007711431165110368,0.6890528054495918,4.0,0.7893749999999999,0.17830163788778894,0.2034518790736442,0.049999999999999996,0.06999999999999999,0.016918272605524646,2.576226769530927,2.569782953260686,0.02063021170983196,0.0004256056351924877,0.00045387493379666147,2.531793113099241,2.5923565028237245,0.0002705115089368252,0.0008002048292268125,-9.73370399569388e-06,3.2833715624054056e-05,0.060563389724483496,4.173209785432013,4.201804148580992,0.17871982910938894,0.031940777316889185,8.908463492509124e-05,4.016503759413485,4.689453110321425,0.00047983288669579315,0.022231039859707157,0.00012687873147032198,0.007311602444419893,0.6729493509079401,4.0,0.79125,0.1660987479208309,0.1989328887105315,0.049999999999999996,0.0725,0.016384435184144383,-1.0,-1.0,-1.0,-1.0,-1.0,-1.0,-1.0,-1.0,-1.0,-1.0,-1.0,-1.0,-1.0,-1.0,-1.0,-1.0,0.32275278423572523,0.01437595559731436,-6.198888197004749,-3798.8320385582592,-103.53912284516286,-123.8527281180969,-0.002350465776694729,-2.7108143618929326,0.0025209901612101,-0.3851002673837092,25.19374538797885
2,5,1,0.1757050632719667,0.21712107478533849,0.18365046733330004,0.03372749415173951,-0.003685636190973018,0.02940096358366165,0.7297938548728161,0.0012069259537762478,0.0239814161827219,-4.6948154491317896e-05,0.007620878228679451,0.7003928912891545,4.0,0.796875,0.16992806198643723,0.1913066034815915,0.049999999999999996,0.075,0.017344797965641576,2.576226769530927,2.5720948065107487,0.017546989022417792,0.00030789682375285054,-0.0002690721470296144,2.534081267638243,2.5923565028237245,-0.00015577384688243248,0.0008890359318249094,-1.584413975167324e-05,2.440048185818006e-05,0.05827523518548139,4.173209785432013,4.202814099218846,0.17877102555744911,0.031959079578862126,-0.0036949557589959587,3.9991232540909243,4.689453110321425,0.0009726935241488562,0.02270659080689482,-6.563576650370958e-05,0.007236853009602512,0.6903298562305009,4.0,0.793125,0.15969142429630612,0.18484672729700002,0.05499999999999999,0.0775,0.016257667469382474,-1.0,-1.0,-1.0,-1.0,-1.0,-1.0,-1.0,-1.0,-1.0,-1.0,-1.0,-1.0,-1.0,-1.0,-1.0,-1.0,0.3230321987431741,0.014354373848942587,-6.346397863189964,-3811.967150303666,-103.0277540419454,-121.67488220035773,-0.0023080638945966432,-2.6775863686388446,0.002519096863291445,-0.3784235494858323,26.389728203223598
3,5,1,0.11494549320223804,0.1384317400403039,0.09086441759574101,0.00825634238501321,-0.0015378433349473913,0.02940096358366165,0.5244480525687696,-0.004090032849700476,0.013157151782092853,0.00033266200522747726,0.0033652456475075938,0.49504708898510796,4.0,0.06,0.06431921889439576,0.07087989166686237,0.050624999999999996,0.07125,0.007643515920004229,2.5642148917759817,2.5637938313622177,0.022723636995524207,0.0005163636783043564,-0.0006076145273557968,2.5316111014447467,2.5923565028237245,-0.00024610282838064733,0.000866577289648412,1.2452575366372898e-05,5.1312882041716094e-05,0.06074540137897788,4.094604509780657,4.1217525008006755,0.09682528223086018,0.009375135279085728,-0.0019964231032107704,3.9991232540909243,4.507726067366431,-0.004119867715049219,0.012515670248633405,0.0002796790361311567,0.003485871190573157,0.5086028132755072,4.0,0.06,0.057678318310181,0.06581638721042515,0.054375,0.076875,0.006916351759572982,-1.0,-1.0,-1.0,-1.0,-1.0,-1.0,-1.0,-1.0,-1.0,-1.0,-1.0,-1.0,-1.0,-1.0,-1.0,-1.0,0.32330978612180516,0.014333279163104284,-5.264555136526823,-3712.7380023862634,-111.92325168053759,-114.9473784476321,-0.0022927755999944868,-2.4487287258254202,0.002582966522534134,-0.3541337489353864,36.76227053545867
4,5,1,0.09197814777294382,0.09942822469931868,0.051945178486478075,0.0026983015679920646,-1.5264062243775768e-05,0.02940096358366165,0.22314328154987179,-0.0006858993279058039,0.010396308720796422,-7.266967617304222e-05,0.003537247532196403,0.19374231796621014,4.0,0.06375,0.08728328633832783,0.10088920626766189,0.06,0.0825,0.010064811960969986,2.5619840791218236,2.562962585905193,0.023101897957074444,0.0005336976892190803,6.389132412030505e-05,2.5316111014447467,2.6067307321106052,0.000143633567079271,0.0012532966190756556,4.506241618083366e-06,6.874653564778156e-05,0.07511963066585858,4.070181071968424,4.0844798556386985,0.054978289959359175,0.0030226123668553742,4.848773292255927e-05,3.9991232540909243,4.186029879195507,-0.0005236588623169743,0.01018162720244678,-0.00012661988526713926,0.003627658534156183,0.18690662510458278,4.0,0.06375,0.0813655504671793,0.0967416020079892,0.06249999999999999,0.08750000000000001,0.009005112424765668,-1.0,-1.0,-1.0,-1.0,-1.0,-1.0,-1.0,-1.0,-1.0,-1.0,-1.0,-1.0,-1.0,-1.0,-1.0,-1.0,0.3235896687990037,0.014311840247777402,-5.462103396783732,-3730.698035662637,-109.22750176357727,-114.55015763484732,-0.002267327895053976,-2.4960528906124804,0.0025629403325633875,-0.3587774142004418,35.296512081006455
5,5,1,0.09916419657332992,0.1036540496467639,0.050487455440114036,0.0025489831568175003,0.0002590743618405565,0.02940096358366165,0.22314328154987179,-0.0004966704513796403,0.010718806192714791,-0.00011816124660811653,0.0037159815787348033,0.19374231796621014,4.0,0.795,0.08976880190102607,0.1086502538184684,0.065625,0.09187499999999998,0.01204806498887777,2.559725631758746,2.5645918512138652,0.025474939221951907,0.0006489725283621436,0.0004975500217474583,2.5316111014447467,2.6067307321106052,-9.148361174839045e-05,0.0015159111716566537,-8.653910047697517e-06,8.707655527236981e-05,0.07511963066585858,4.086414882146849,4.089898412715526,0.05541819272329198,0.0030711760847159323,0.0007047358731213018,3.9991232540909243,4.191379677819615,-0.0005971174391016428,0.010521678047710896,-0.00012333722965888563,0.00365985133894286,0.19225642372869078,4.0,0.79875,0.08269855143935523,0.10360585384931786,0.06562499999999999,0.095625,0.011566555897861241,-1.0,-1.0,-1.0,-1.0,-1.0,-1.0,-1.0,-1.0,-1.0,-1.0,-1.0,-1.0,-1.0,-1.0,-1.0,-1.0,0.3238692294448926,0.014289183932431726,-5.3204552892185575,-3717.668230940862,-109.33842710196575,-114.36648710347586,-0.0022677149234429797,-2.50169947899382,0.002562626631894393,-0.3602787569025144,35.37116370140015
6,5,1,0.09821313602317618,0.11061911559163888,0.05465424795061933,0.002987086819047777,2.806845848660716e-05,0.034670644594213124,0.2973752653015136,0.0006966465102288048,0.011363278573271272,0.0001535826045730435,0.004251131327003379,0.2627046207073005,4.0,0.79125,0.06304791918596808,0.07257586282693979,0.05437499999999999,0.08249999999999999,0.007074552302326978,2.5551699746152643,2.5627924072187502,0.02655554678355379,0.0007051970649735142,2.3299659871398207e-05,2.5316111014447467,2.6067307321106052,0.0001346050484847298,0.0015595836407033355,2.0618222838348724e-05,0.0001087180202621963,0.07511963066585858,4.0894981033407385,4.094684105205628,0.05809955645186634,0.0033755584599036033,4.5196904724889236e-05,4.002667185615166,4.256522581903152,0.0007794147399566743,0.01149604802978568,0.00014936433336102764,0.004344953257464628,0.25385539628798615,4.0,0.7875,0.056794692584450246,0.06542755806270106,0.04875,0.075,0.00647597157381214,-1.0,-1.0,-1.0,-1.0,-1.0,-1.0,-1.0,-1.0,-1.0,-1.0,-1.0,-1.0,-1.0,-1.0,-1.0,-1.0,0.3241476699185871,0.014267399219117877,-5.49630141114482,-3733.1171414948453,-112.04961009985175,-118.0991895238489,-0.002300524525375381,-2.477875011047674,0.0025850985095631513,-0.35997453956191555,34.51527382406945
7,5,1,0.13169037928177107,0.17395528428714538,0.14472824921878322,0.02094626612193422,0.0026277390059213047,0.034670644594213124,0.641314171914338,0.0012126101169291502,0.019154502281973556,3.2655823951613025e-05,0.006797308580974906,0.6066435273201249,4.0,1.53,0.12608703709180685,0.1734961446160117,0.05999999999999999,0.09375,0.0155628433500811,2.57802402636134,2.577920174948372,0.029995392477558468,0.000899723569882771,1.9296671287877424e-05,2.534722596100357,2.659498358723729,0.0008738064162058856,0.002240984943648438,2.2315959585131328e-05,0.00011064897613829116,0.12477576262337209,4.135502200474462,4.167753173652356,0.14373241694792488,0.020659007681692123,0.002478560188074075,4.002667185615166,4.607449007480547,0.0020001818316660296,0.018280734999741016,6.199441294694926e-05,0.006593575574914514,0.6047818218653811,4.0,1.5225,0.11171046854433708,0.16059550429273428,0.056249999999999994,0.084375,0.015313146383482294,-1.0,-1.0,-1.0,-1.0,-1.0,-1.0,-1.0,-1.0,-1.0,-1.0,-1.0,-1.0,-1.0,-1.0,-1.0,-1.0,0.3244286199531213,0.014245221705201191,-4.77996976885791,-3668.3320761771524,-110.77187316636036,-123.75573526432623,-0.0024067931907427523,-2.608932920870446,0.0025731100152062937,-0.3784031266549821,28.1445567715663
8,5,1,0.16020096617904175,0.19094111409121062,0.14015064187774298,0.019642202418743364,0.0010823759896452282,0.039429069581539786,0.641314171914338,-0.0005187426266390504,0.019215896668055368,4.0208220983114124e-05,0.0066924785844078355,0.6018851023327982,4.0,1.52625,0.1184426984699833,0.15587428957030514,0.046875,0.07687499999999999,0.012573398628772204,2.58990443529394,2.6131922396218075,0.07454842065701729,0.005557467022455603,0.0016175240202834667,2.534722596100357,2.7785243001581423,0.0014392062271648557,0.002640165819515489,1.7687896814919112e-05,0.00011384301897982722,0.24380170405778534,4.232872025138155,4.216589936962033,0.14464533344200606,0.02092227248654912,0.0025212871216672046,4.002667185615166,4.607449007480547,0.0008797729826326835,0.018208199727024303,8.144764514332695e-05,0.006469599890341653,0.6047818218653811,4.0,2.2575,0.10280726558374287,0.15123432657317593,0.045,0.07125,0.012797880596478118,-1.0,-1.0,-1.0,-1.0,-1.0,-1.0,-1.0,-1.0,-1.0,-1.0,-1.0,-1.0,-1.0,-1.0,-1.0,-1.0,0.3247119048447263,0.01422190097673097,-4.412053231587166,-3634.4807160748087,-112.99070846118275,-124.01917174559313,-0.0024282896727053464,-2.5940728286400123,0.002587050420988251,-0.3787800136752473,29.872916932781237
9,5,1,0.153457544352471,0.18260139510332923,0.14790404260718804,0.02187560581954889,-0.0009367811971074589,0.02613278120818702,0.641314171914338,0.0021388212386885355,0.02011307607741887,0.00026253013198622677,0.006738652814684998,0.615181390706151,4.0,0.796875,0.10583046670400026,0.14052347611196211,0.045000000000000005,0.0725,0.013590117828412365,2.6619445634797465,2.6621371485828282,0.09962638824752006,0.009925417235245603,0.0027715531464994575,2.534722596100357,2.786493623729899,0.0017973660650238217,0.0022604565242397897,8.87593060543516e-06,0.00012265953963097197,0.25177102762954195,4.264301179698528,4.254622614419031,0.136061685571286,0.0185127822804995,0.0017142374018569394,4.002667185615166,4.607449007480547,0.0037247144685747784,0.01857043970728408,0.00021814870543466388,0.006472266286132138,0.6047818218653811,4.0,1.5281249999999997,0.09429297163969164,0.14008054549307336,0.047499999999999994,0.07,0.01497037190008043,72.25806451612902,830.3571428571429,144.76268184902645,64.21264586426018,178.60862707794007,1.0,1.0,125.0,118.3105905375057,109.74639325888263,40790.94354085736,1.0780362527123861,0.17214666896195557,0.0,28956.173547587325,0.0,0.38000931797094406,-0.09290819150120508,52.894454731459945,2797.823341338465,-158.21369194917017,160.82810316122368,0.07109994119020714,3.264385718522377,-0.0017544551455251562,0.3477097238453812,319.0417951103939
10,5,1,0.18478141833639475,0.1903673311819253,0.14844217585081462,0.02203507957132417,-0.0027789946905491403,0.02613278120818702,0.641314171914338,-0.002157856629742849,0.019470459385975056,7.33955246573496e-05,0.006292894983152828,0.615181390706151,4.0,21599.848125,0.13280589915039098,0.2363919933645952,0.06,0.09249999999999999,0.03395442740547311,2.764769053919648,2.7198688185739126,0.07676731115158934,0.005893220061444934,0.0019106287746174769,2.5510290630610113,2.789880423569664,0.002007993347526134,0.0020675426787881094,-1.203446333503111e-06,0.00011354049283325188,0.23885136050865263,4.281964943101057,4.315705133216699,0.08979745298272686,0.008063582562185041,-0.0008161340781145317,4.220706804085004,4.607449007480547,-0.00013889954012461143,0.018102602448825122,5.553893177881834e-05,0.005937484881683111,0.386742203395543,4.0,1.539375,0.12017780000671152,0.1792853777463015,0.06,0.08999999999999998,0.020927034052627608,63.39622641509434,946.4285714285714,182.57236648820117,131.69567191065923,319.0715290103459,1.0,1.0,187.5,225.60682059725053,85.69568250501304,60738.077288948305,2.632650957462798,0.3020691738408095,0.0,41237.52632678961,0.0,-1.995403718051128,1.21922936765198,71.25634430629161,5077.466603896776,-215.15439677797738,203.87996199428264,0.0077127078679600485,4.0345171251535605,-0.001738113745441945,0.3726776129533426,419.03435877226
11,5,1,0.07455276458372717,0.11242590768654175,0.08023709862210403,0.0064379919952932485,-0.0009407859251767891,0.02613278120818702,0.3138084374501842,-0.001263206187620326,0.011477065468484687,1.0444373872303478e-05,0.003352493959503701,0.2876756562419972,4.0,0.07125,0.07079169745369039,0.10223373787247557,0.065,0.09499999999999999,0.012651195487839245,2.7774998965579387,2.7744632672713694,0.03688305072441453,0.0013603594307397351,0.0008887353847240686,2.664390768235764,2.83162755497796,0.001414564361459823,0.00179276888791814,-4.0055422639294806e-05,0.00010254204244205394,0.16723678674219622,4.282506540460297,4.2939763751265385,0.059827498092252955,0.003579329527978531,-4.948667701566343e-05,4.220706804085004,4.475754537858389,0.00014296528344525845,0.010578341226725914,-2.8420933581433754e-05,0.003202753843517709,0.2550477337733854,4.0,1.5393750000000002,0.06634887069543272,0.10647154288587912,0.056249999999999994,0.08249999999999999,0.013869695635149034,64.0,937.5,172.86645857424165,139.48102399497753,303.4831968680474,1.0,1.0,156.25,203.18133233295262,87.82549670280119,56060.15460850358,2.3134663618301197,0.2134471718249733,0.0,38635.94190096374,0.0,2.3668187090493733,-0.8960205536019238,72.54112519408908,5262.214844424505,-215.15439677797738,203.87996199428264,-0.042232349040724565,4.000498040050124,0.0020422780980572488,0.3608999613012459,419.03435877226
12,5,1,0.07355732445951238,0.09579439529134458,0.06893428788344082,0.004751936045997095,-0.00021484585713550832,0.02613278120818702,0.3138084374501842,0.0007029106526936863,0.011427870187151006,5.229047867736043e-05,0.003599074965575145,0.2876756562419972,5.0,0.06899999999999999,0.06652727115095461,0.09478336246387789,0.075,0.1075,0.014773139099034443,2.790901193749752,2.799073902417471,0.02478862625394919,0.000614475991557979,0.0005967086423358883,2.7641211481948336,2.831667765815214,0.00036423583989345456,0.0010235735388901463,-1.1748678486902161e-05,8.925569442743772e-05,0.06754661762038028,4.2914390887587235,4.30143431233405,0.059730136917167706,0.0035676892561436004,0.0003529073959695164,4.220706804085004,4.475754537858389,0.0010637136319089358,0.01057620454468191,9.104407632513263e-05,0.0032594602153973896,0.2550477337733854,5.0,0.6539999999999999,0.06077561588277973,0.09180617731002272,0.06,0.09,0.015180548139192462,-1.0,-1.0,-1.0,-1.0,-1.0,-1.0,-1.0,-1.0,-1.0,-1.0,-1.0,-1.0,-1.0,-1.0,-1.0,-1.0,0.3258156348338724,0.014114985212591122,-4.55276752364562,-3694.7327842001514,-114.19786635967682,-118.70753413368948,-0.002324243132314785,-2.4898711247549485,0.002607418655877097,-0.36603542761237307,34.81808433472278
13,5,1,0.08310312035482476,0.09554329581970299,0.06009225056790118,0.0036110785783154196,-0.0006225316691072251,0.02753703932534595,0.3138084374501842,-0.002138365143295577,0.008516004365153419,-9.098609616585692e-05,0.0031920521797201853,0.28627139812483826,5.0,0.05249999999999999,0.05865833203814502,0.0509648311601615,0.06937499999999999,0.09375,0.005590818129046834,2.824263557625378,2.8116477313528803,0.025061334114095533,0.0006280704675783285,0.0006277676470821033,2.7641211481948336,2.8363855408530245,0.0005519535968831924,0.0008614286121928365,3.4604400463174774e-06,7.73807440737973e-05,0.07226439265819096,4.305090092182782,4.312887273497905,0.049835378663079084,0.0024835649664924782,3.953769951490682e-06,4.220706804085004,4.475754537858389,-0.0014853445898901363,0.008448777888407174,-8.809064203933459e-05,0.0031126671260877183,0.2550477337733854,5.0,0.6405,0.05112484393127872,0.055739732971476566,0.041249999999999995,0.06,0.0047477681757073075,-1.0,-1.0,-1.0,-1.0,-1.0,-1.0,-1.0,-1.0,-1.0,-1.0,-1.0,-1.0,-1.0,-1.0,-1.0,-1.0,0.3260932356094297,0.014093011380308218,-5.496893933566838,-3780.0519783759423,-113.16823861111448,-117.24814898580544,-0.002242173616454091,-2.485575347985516,0.0025964622717955877,-0.3661143521549379,37.72814694374679
14,5,1,0.07282990077569476,0.0740671522080018,0.02806261116034432,0.0007875101451366816,-0.00018025211635096805,0.031220385099215053,0.1598157881568314,-0.00012475689396801293,0.006871200677209302,-9.857552201563634e-05,0.002970657604572008,0.12859540305761635,7.0,12342.773571428575,0.04968008233452925,0.041502835935659003,0.05874999999999999,0.08125,0.00404316742058273,2.8258935369367113,2.8188597585757154,0.019547530567816235,0.0003821059512997101,-0.00016772740809138344,2.746519009890406,2.8363855408530245,-0.0003878847350789287,0.0017904560335324953,-5.332430750541369e-05,7.693557536201746e-05,0.08986653096261854,4.299602689102709,4.2997786331943155,0.03672343765880284,0.0013486108734799788,-0.00032345351414712437,4.19603052386174,4.392019750877848,-0.0004473054750111727,0.007163686771550411,-0.0001365396512514383,0.0029123507031412026,0.1959892270161081,6.0,14399.900000000001,0.04754121034903669,0.05430745901938394,0.0375,0.05499999999999999,0.00350222591933973,-1.0,-1.0,-1.0,-1.0,-1.0,-1.0,-1.0,-1.0,-1.0,-1.0,-1.0,-1.0,-1.0,-1.0,-1.0,-1.0,0.33350359817174474,-0.010337395459483242,-3.489269109265095,-3754.039571316799,-117.40438200435199,-114.03207765375166,1.6392281138821047e-05,-2.4351112110880067,0.002707415938353312,-0.36058052018285747,43.06255798522042
15,5,1,0.07593631188452143,0.09630766433756442,0.07578734075669245,0.005743721018971018,0.0006421370009707277,0.014134670156615469,0.39900542284680457,0.0027756498414662346,0.011115931527032233,-8.96279830540809e-05,0.004578887195479997,0.3848707526901891,5.0,0.045,0.057580069663541365,0.042654223633469004,0.052500000000000005,0.072,0.003263042386337004,2.8237065269246147,2.7899561581736334,0.05512972072992443,0.003039286107759459,-0.001350879547138039,2.684350517428981,2.8363855408530245,-0.0011590178165062266,0.0017835927419458998,1.5568269694790637e-05,0.0001383408340609384,0.15203502342404374,4.300711434621046,4.293366495426115,0.06685965232693608,0.004470213109278769,-0.0006638657871778733,4.1338897079373025,4.4828219786256405,0.0015114106920917191,0.011154792693483717,-6.95176402341772e-05,0.004475172757656404,0.348932270688338,5.0,0.048,0.06666866671338383,0.05650025950159883,0.0375,0.05499999999999999,0.00350222591933973,-1.0,-1.0,-1.0,-1.0,-1.0,-1.0,-1.0,-1.0,-1.0,-1.0,-1.0,-1.0,-1.0,-1.0,-1.0,-1.0,0.3266479962807138,0.014051119301323772,-6.365271553514461,-3858.395439834121,-109.90384150672571,-120.44868045165654,-0.0022147639252728816,-2.518877704150239,0.002584570563503131,-0.36553320257610267,32.71476162261851
16,5,1,0.0879773679053063,0.12312766940922515,0.09918625393081498,0.00983791296882811,0.0014279677785559095,0.014134670156615469,0.39900542284680457,-0.0005734452001294111,0.011559096814329645,-1.7069597458592665e-05,0.0039767353351419215,0.3848707526901891,4.0,0.778125,0.07048634234909473,0.08647824823229333,0.065625,0.09,0.011281431579421703,2.7721830227946587,2.7683709817950963,0.05537194757016954,0.0030660525777136045,-0.0011721869665889055,2.684350517428981,2.8363855408530245,-0.0002519050810404414,0.0026989892123583012,2.2470080129466386e-05,0.00014670232838720718,0.15203502342404374,4.298722367940927,4.298434997721677,0.07442278374177558,0.0055387507398750955,0.00024336760070126762,4.1338897079373025,4.4828219786256405,-0.0008358294835722812,0.010643682197780521,-2.9370577860841444e-05,0.003974973202957712,0.348932270688338,4.0,0.781875,0.08660388699878485,0.09983023674701275,0.07875,0.10125,0.02109266255101725,-1.0,-1.0,-1.0,-1.0,-1.0,-1.0,-1.0,-1.0,-1.0,-1.0,-1.0,-1.0,-1.0,-1.0,-1.0,-1.0,0.32694308957887125,0.014052042051521996,-5.771494899227541,-3756.0707325647454,-106.024381544027,-112.01548828332821,-0.0021431670508552172,-2.492570054824214,0.0025497686032810198,-0.3544311506004253,34.133071853441464
17,5,1,0.05789120554599243,0.10937063318793672,0.10688489756422444,0.01142438132731475,-5.650227690956357e-05,0.014134670156615469,0.39900542284680457,-0.00021074182214187527,0.011333209180719922,-3.933121141487742e-05,0.0037946460065104337,0.3848707526901891,3.0,28800.725000000002,0.07938884886318205,0.11591946455547726,0.065,0.09249999999999999,0.015116614813733373,2.7721830227946587,2.7645315681263614,0.051410803110166,0.002643070676432254,0.00025946337174713896,2.684350517428981,2.834788374060894,-9.916891566645695e-05,0.0027789618235643924,4.164988839165199e-06,0.00015381066742166266,0.1504378566319131,4.263791623451967,4.281873915948234,0.07472298252651399,0.0055835241176577155,0.00018826421379360874,4.1338897079373025,4.4828219786256405,-0.00028359514731440827,0.010254759019269337,-4.400739021216034e-05,0.0036848498962062637,0.348932270688338,3.0,28800.727499999997,0.10240117595571974,0.13433370872696196,0.08625,43199.67,2503.5062510065177,-1.0,-1.0,-1.0,-1.0,-1.0,-1.0,-1.0,-1.0,-1.0,-1.0,-1.0,-1.0,-1.0,-1.0,-1.0,-1.0,-0.055722875481016565,-0.16658856612998438,-6.343792386528051,-3818.666046237996,-105.45532383290993,-124.500377819106,-0.014958059817877546,-2.6720860863442573,0.0016983474600939861,-0.3929974045675111,24.817446622307017
18,5,1,0.03654842758146295,0.10147093512224226,0.1123612621413712,0.012625053230001937,-0.0017094338814033667,0.0054786452526092546,0.39900542284680457,0.0005049471327272492,0.011532464775058648,4.196433102430638e-05,0.0038190007483508933,0.3935267775941953,1.0,3.0,0.18369763043856646,0.282672618879675,0.105,0.1425,0.040280848190353685,2.792902951047876,2.7687935801031944,0.053037451425845206,0.00281297125374889,0.0013567493876534787,2.684350517428981,2.82375787509013,0.0005582846532009541,0.002185337689400442,3.277493834198675e-05,0.00013230664520395545,0.13940735766114942,4.25594368599746,4.278347376315114,0.0746751576678875,0.005576379172723857,-0.0003249108155711222,4.1338897079373025,4.4828219786256405,0.0009653345389393589,0.010235744396245555,5.820450188587419e-05,0.0037218817984390504,0.348932270688338,2.0,1.5225,0.13879024271466633,0.17252476040950127,0.1275,0.1575,0.041174183695429925,-1.0,-1.0,-1.0,-1.0,-1.0,-1.0,-1.0,-1.0,-1.0,-1.0,-1.0,-1.0,-1.0,-1.0,-1.0,-1.0,0.3275418165525491,0.014078295038304003,-7.235558297690687,-3746.134131952086,-98.57871183004579,-113.7280451182109,-0.0020428158674878506,-2.5529480445997685,0.002408790069504383,-0.3475249024887871,24.827418005789383
19,5,1,0.06948981419786673,0.09778586330966246,0.09623161927530147,0.009260524548346572,-0.0008235529381157512,0.0054786452526092546,0.37338160887518057,-0.0026278914929303027,0.00959249855093479,0.00010077069362966351,0.002845231772064765,0.3679029636225713,1.0,3.0,0.140647228576269,0.1721724951713075,0.0525,0.08249999999999999,0.014204230851632867,2.8093053191427924,2.79562390372936,0.03566839211344785,0.001272234195958669,0.0007038878028680667,2.693715659077933,2.82375787509013,0.0009665400248893896,0.0015549497350271935,-1.7115898537470307e-05,7.273151818581376e-05,0.130042216012197,4.276872385952505,4.300052072898323,0.06560108228118422,0.004303501996462702,-0.00011527286275072464,4.229490030218008,4.462460442812125,-0.0015507000034571615,0.008448354349158896,7.788988884186998e-05,0.00265306678293104,0.232970412594117,1.0,0.06749999999999999,0.12871314052893723,0.1476164637706976,0.0525,0.075,0.011071234782802319,69.50226244343891,863.28125,204.43537668952382,0.0,203.125,1.0,1.0,140.625,0.0,0.0,0.0,3.272499092630367,0.28977108084613157,0.0,0.0,-0.24121597071824408,0.8224619054846616,0.35017881218590774,60.74888179875045,3690.4266397985543,-200.2922913811095,143.06683837331053,0.012297668110016336,3.402690316131332,0.0029157078763761206,0.3221151531381184,343.35912975442
20,5,1,0.03566538522096358,0.05833201130394164,0.05897626647686617,0.0034782000075503287,0.0004533104143279282,0.0054786452526092546,0.2538399340701962,1.1020599235829993e-05,0.00845823945044817,7.645541416628846e-05,0.0028663402320630053,0.24836128881758698,2.0,1.51875,0.07921478891181877,0.09192453849949611,0.0375,0.06,0.007321051335085522,2.8093053191427924,2.8119219178254835,0.007062018831030297,4.9872109969826525e-05,-0.00011886094651511387,2.794326377296324,2.82375787509013,2.036782501682229e-05,0.0007752768546594788,-3.422500380243498e-05,4.886322868488672e-05,0.029431497793806383,4.258723291594654,4.278285880315015,0.05363088654455455,0.002876271991554882,0.0003175662182635254,4.2292992180515325,4.460641473664786,2.8307211097263383e-05,0.007957494755272332,7.380274210002092e-05,0.0026659552065698526,0.23134225561325383,2.0,0.05249999999999999,0.0727640022171272,0.07936489447246498,0.041249999999999995,0.06,0.005785667207821387,66.20689655172414,906.25,202.04037344055766,0.0,203.125,1.0,1.0,203.125,0.0,0.0,0.0,2.944843061248112,0.22079929344226099,0.0,67132.5728599183,0.0,3.1000734375039283,0.7343739189136224,57.72575314091441,3332.262575685789,-200.2922913811095,143.06683837331053,-0.0017060355548049189,3.2138210692948666,0.0008809909662774167,0.3066968738124268,343.35912975442
21,2,1,0.06196056602385467,0.06814436436884348,0.041061868277440926,0.0016860770264339093,7.039266314411452e-07,0.012033278953336179,0.19240233314281982,-4.4991428972511575e-05,0.0073139133493860375,0.00012869682484949933,0.0022772119827971665,0.18036905418948365,4.0,0.06375,0.05201031468608613,0.07017495090090971,0.0725,0.1075,0.008088989211633209,1.8485382862514514,1.8551132983332197,0.018762785625665936,0.00035204212443469627,-0.0003151693308400914,1.8383425696944249,1.9075321121436262,-0.0004225444479308273,0.0009201447831535135,1.1086895924954098e-05,4.766196663826124e-05,0.06918954244920128,1.023389637535876,1.023952236893911,0.011924698005130432,0.00014219842251356172,-0.00010425533294024064,1.0035222812206022,1.0590193702533546,-0.000155225226553804,0.002454544215089508,4.0692604670742685e-05,0.0007517570854170747,0.05549708903275241,2.0,0.06375,0.022977901880658624,0.02865753875841237,0.06749999999999999,0.09749999999999999,0.004251716019092097,-1.0,-1.0,-1.0,-1.0,-1.0,-1.0,-1.0,-1.0,-1.0,-1.0,-1.0,-1.0,-1.0,-1.0,-1.0,-1.0,0.17925592314259703,0.2753367165156206,2.551917838555404,206.85280983449144,-49.489447210449725,41.055973663926125,-0.014726339142090265,1.0500156003968926,0.0015881594623560161,0.07812541317581377,90.76098690927029
22,2,1,0.06808856045938513,0.07694971704093678,0.047528596771815305,0.0022589675110978123,-0.0003003196106522571,0.014575041739258467,0.2692534239651111,0.0018418984194046328,0.01015280415800445,0.0002375876711682086,0.002535576673852275,0.25467838222585265,3.0,0.06,0.06232500130861806,0.07956506595886988,0.08,0.1075,0.008367289702832388,1.8485382862514514,1.8513937054650456,0.01140575549720524,0.00013009125846202756,0.0002871489519894241,1.8383425696944249,1.8829361474085875,0.00024843156120296547,0.0005699874617780428,2.4170014294705906e-05,2.5667609829541472e-05,0.04459357771416261,1.022257052370068,1.0256605871064226,0.015975748279029794,0.0002552245330749234,-5.7725369552176e-06,1.0035222812206022,1.0978522807649014,0.0006696969704086148,0.0033767441704131863,7.516648592985666e-05,0.0008503706958342751,0.09432999954429921,2.0,0.06749999999999999,0.022304560064226653,0.03014589884429364,0.06749999999999999,0.09749999999999999,0.0029392251373186297,68.05063291139241,881.6964285714286,119.53953427674897,115.05584392903397,237.99290955824713,1.0,1.0,78.125,162.37976320958222,62.49999999999994,31883.191949429576,2.598076211353318,0.4862236628849271,0.0,27364.815775897667,0.0,-0.12133862656885042,0.05870412663922198,5.50768812525527,30.334628485077914,-22.599945737473707,18.799017485719713,-0.0028465143187895725,0.2436188611765062,3.569689044419104e-05,0.019850773517682368,41.39896322319342
23,2,1,0.06842046189508064,0.08299779235506252,0.060122242751749516,0.003614684073500297,0.0004374159063082505,0.014575041739258467,0.2861388371754042,-0.0008868797789158111,0.010309075853345033,6.361027441282895e-05,0.003112647862494875,0.2715637954361458,3.0,0.05499999999999999,0.038375374459232496,0.03997469349343552,0.0725,0.09499999999999999,0.004623977681459447,1.8572831384704878,1.8681606162454891,0.026706167860445836,0.0007132194017903101,0.0007153777999389557,1.8394506195789126,1.9356070558741125,0.0008099904636528904,0.000618598836048412,1.3126575903979476e-05,1.5152751555163277e-05,0.09615643629519988,1.0250569826747336,1.0331864350230962,0.023969026716639825,0.0005745142417429937,0.0003815777179834056,1.0035222812206022,1.10737287351033,-2.9452153500946395e-05,0.0034799636541355526,1.7213023745134283e-05,0.0010154180216151788,0.10385059228972793,2.0,1.53375,0.032650078573542185,0.047958156401581964,0.06749999999999999,0.09749999999999999,0.004675920249154241,70.0,857.1428571428571,167.75262703621374,83.00717422140222,348.5694350365027,1.0,1.0,171.875,234.02752019438512,67.7083333333333,49780.4624809725,3.4564064521016897,0.16675004168751043,0.0,29790.297379195392,0.0,-0.00969594645191775,-0.03416964626788266,5.56361354737054,30.953795704485007,-22.599945737473707,18.799017485719713,0.00080190588505949,0.2544624579389445,-2.7629271881854493e-05,0.02088557521507343,41.39896322319342
24,2,1,0.06954198565858072,0.11871422621283108,0.10761372106732317,0.011580712961955635,0.0019596915549457976,0.014575041739258467,0.4080528772200519,0.001153901113567817,0.015047906578932442,-9.15758486937424e-05,0.00431471974893765,0.39347783548079346,3.0,1.035,0.09382640077944863,0.13760230702666718,0.05249999999999999,0.07125,0.0020240576155860527,1.883636700312692,1.8971518978000155,0.04295977647795028,0.0018455423950354502,0.0012059107742270088,1.8476710118821704,1.9780585211291082,0.0010922051980287617,0.0005766983022893857,7.1856306282476004e-06,2.2516138710166043e-05,0.13038750924693776,1.0427982441779342,1.0544172563691812,0.04585377632605036,0.0021025688033594566,0.0010394162023392745,1.0035222812206022,1.1716174657631697,0.0007313169102694038,0.005022961498075286,-2.4365046008383018e-05,0.001409438487732958,0.16809518454256756,4.0,1.535625,0.03672026359616032,0.05808175845207131,0.057499999999999996,0.085,0.003332463301319815,68.87892376681614,871.09375,142.51122146058358,0.0,343.75,1.0,1.0,85.9375,0.0,0.0,0.0,1.8720504888761684,0.2870264064293915,0.0,0.0,-0.08445570015570525,0.35423825445204193,0.3568476169299515,5.584323350689079,31.1846672850513,-21.08333696601681,22.186581389456723,-0.0008756446167141482,0.30553619630594897,-1.5918807693822424e-05,0.03199475904440337,43.269918355473536
25,2,1,0.07526634528645967,0.1252140355102097,0.10694093954084567,0.011436364549878808,0.0003111574533918151,0.016104354026386408,0.4080528772200519,-0.0001969777906918978,0.01564582808958794,2.1090476506323053e-05,0.0043135735573114386,0.39194852319366547,2.0,1.52625,0.12154059580430385,0.18811809646588995,0.07125,0.09749999999999999,0.02615818614824746,1.9365137335182467,1.9333821221915566,0.05029883901644941,0.002529973206402693,0.0014470931791321828,1.8575249564965852,2.0173312998164756,0.0013407274193348306,0.00037974710670584576,9.73310660969488e-06,2.3562054419042598e-05,0.1598063433198904,1.0595392530182248,1.06848301087853,0.04061360481178493,0.00164946489580784,0.0005769126051330892,1.012486724396461,1.1716174657631697,0.00038011366582510475,0.0052064469075944,7.676647583062153e-06,0.0014157228605680098,0.15913074136670868,3.0,2.025,0.04497684502859064,0.07188085996841931,0.075,0.10499999999999998,0.009386925672295704,-1.0,-1.0,-1.0,-1.0,-1.0,-1.0,-1.0,-1.0,-1.0,-1.0,-1.0,-1.0,-1.0,-1.0,-1.0,-1.0,0.17708135669853214,0.27554916406955676,2.461608631595613,231.43357329494813,-49.492822458036244,41.05642405804247,-0.01528311842829423,1.0396474794190746,0.001620534426494689,0.07660133827074604,90.7713593840599
26,2,1,0.08002717881628549,0.12697835074205097,0.10268412714075725,0.0105440299666592,-0.0009694613427945933,0.016104354026386408,0.4080528772200519,-0.0018660791893678858,0.01453864295135763,-6.517031274018801e-05,0.003888504781674912,0.39194852319366547,3.0,1.04,0.11790173118158725,0.1650404981344691,0.06999999999999999,0.09499999999999999,0.02100534980964713,1.9786109146661472,1.9773039110900932,0.051255869835077954,0.0026271641925504543,0.0014764638766108483,1.8843372532167966,2.067263984516989,0.001536243702218279,0.00025187826359440447,-3.6035293244409314e-07,2.1643165341890552e-05,0.18292673130019232,1.0803775115454415,1.0835039520248402,0.033023984345042647,0.0010905835420216216,0.00016661659975580895,1.041429517428089,1.1716174657631697,-7.936411130849604e-05,0.0048894935819812305,-3.611060447528218e-05,0.0013256958018872638,0.13018794833508074,3.0,2.025,0.038406428536006544,0.06033344609817304,0.07875,0.10875,0.010217835387061896,-1.0,-1.0,-1.0,-1.0,-1.0,-1.0,-1.0,-1.0,-1.0,-1.0,-1.0,-1.0,-1.0,-1.0,-1.0,-1.0,0.17730438797738463,0.27561442021630483,2.550675800044372,222.1738252565528,-49.49175550136715,41.05628304928541,-0.01524329222760448,1.0411841055859332,0.0016051862846195232,0.07733824108856012,90.76781587302685
27,2,1,0.08448432277738288,0.1251299632419099,0.10048941217248795,0.01009812195877217,-0.0007822950664131211,0.016104354026386408,0.4080528772200519,0.0005304248015467964,0.014669532108533343,-7.017400992751355e-05,0.004025758936534644,0.39194852319366547,4.0,1.53375,0.09733620055305485,0.16155049787964104,0.06749999999999999,0.09999999999999999,0.021138383268890688,2.0181704112505674,2.0203811314271607,0.04755099785883931,0.0022610973973713404,0.0013672003452099612,1.937420411162381,2.0870752812652125,0.0012496882195098629,0.000481287573021207,-1.7010867625409192e-05,2.857932295096739e-05,0.14965487010283152,1.0916014587677954,1.0970073866195278,0.03269300835895913,0.0010688327955589714,0.000195504136872648,1.041429517428089,1.1716174657631697,0.0005651465844551738,0.004932956496440053,-1.1011642635398722e-05,0.001327456795735728,0.13018794833508074,4.0,3.0,0.03155155576308921,0.05729852279470149,0.07875,0.12375,0.010417154156063486,50.19607843137255,1195.3125,134.27503549152388,86.25257896707913,204.0244508937593,1.0,0.8333333333333334,93.75,135.42918611999778,119.23841899419884,50731.57554803573,1.1357848188727382,0.08369601606963509,0.0,74300.42518762038,0.0,0.1960644323331262,0.31098216767040615,9.574485236581063,91.67076754550875,-27.797989454288142,23.03245525001363,0.00653754532039917,0.6636017110347968,-0.0005089425774346697,0.062382271294024814,50.83044470430177
28,2,1,0.06400278168413015,0.07772779310184251,0.055910020065018155,0.0031259303436707324,-0.00027834372900423416,0.009343620767619954,0.2124750413886787,-0.0017701231189635772,0.008980194007467782,0.0001405980464936472,0.0025250487357083573,0.20313142062105874,3.0,1.045,0.05791454855923892,0.09479335951516403,0.05499999999999999,0.09749999999999999,0.010628540653951787,2.058939667990063,2.0482975558195577,0.03466766906902078,0.00120184727867914,0.0008510119962294363,1.9791633082031863,2.0870752812652125,0.0005766404298786202,0.0011956748223103406,-2.41837057972788e-05,3.5544291768567935e-05,0.10791197306202616,1.0871542883711114,1.0906661127468074,0.02262512980520555,0.0005118964987024004,0.00018834979120290645,1.0583062975230333,1.1465912207784201,-0.0003876246630841934,0.0031252022741551067,1.852793729108885e-05,0.0008716402594361377,0.08828492325538684,3.0,3.0,0.017869309385617704,0.03451417564484468,0.045,0.105,0.003363143421432483,49.152,1220.703125,123.38742556318036,94.47635286144359,207.17123804959027,1.0,0.8,54.6875,142.6931257103859,101.59855129380539,45544.97199433298,1.4044799250900946,0.1024380249948781,0.0,70015.98596405915,0.0,-0.5924659968052849,-0.27638752499448555,9.223637391787413,85.07548673517891,-27.797989454288142,23.03245525001363,0.0010030910758789568,0.6596422976231249,0.0004752683078093346,0.05903916848376197,50.83044470430177
29,2,1,0.054613282991937476,0.06824389239482737,0.05326778338433113,0.0028374567466800233,-0.0006665945729836626,0.0034289447009811006,0.20985889881387954,0.00016166530458774364,0.008224529801024383,-0.0001476066123861747,0.002504328443444955,0.20642995411289844,4.0,21600.568125,0.05335716976056663,0.07657931687524734,0.04999999999999999,0.09249999999999999,0.00921730727764168,2.058939667990063,2.0562594636155613,0.023608817261124185,0.0005573762524691552,-0.00017357185733467856,2.0190095226846587,2.0870752812652125,3.1860373659634934e-05,0.0012798994482696208,-9.698289332416935e-06,5.813663450763443e-05,0.06806575858055375,1.0850244867522263,1.090140454494415,0.021834616162124707,0.0004767504629473175,-0.00027614389660152936,1.0609447443606355,1.1465912207784201,7.076806377995607e-05,0.002889337324152401,-5.033868720407351e-05,0.0008355167337150071,0.08564647641778467,4.0,21601.303125000002,0.016306084882839578,0.026025417951485108,0.049999999999999996,0.09749999999999999,0.003064085198348804,47.701863354037265,1257.8125,135.24127263123734,117.1875,227.77155839239455,1.0,1.0,31.25,138.10679320049758,160.20388011257717,69508.50445106812,0.8620689655172415,0.1325556733828208,0.0,7302.152522308619,0.0,-0.09979187090508328,-0.1006103199545772,9.063208943114114,82.14175634654366,-29.609862064710857,23.03245525001363,6.066838942171092e-05,0.5977343319760997,0.0005997195620431091,0.051472979828822166,52.64231731472449
30,2,1,0.04151021826943955,0.06070674471650085,0.05865168846015027,0.0034400205592265243,-0.0005094377681814496,0.0034289447009811006,0.24501348406333223,0.0016711439123615539,0.010224952313712298,0.00031942833716951146,0.0024831944420252933,0.24158453936235114,2.0,1.53,0.04484236966394705,0.10149026798214383,0.06749999999999999,0.13499999999999998,0.020030094753846053,2.0611015095422855,2.056819150982408,0.023969524397528006,0.0005745380998436904,-0.0004567414507826455,2.0203302350489127,2.0870752812652125,0.00013341884125826488,0.0014678545470521288,1.6544109321279625e-05,7.279361166635071e-05,0.06674504621629973,1.0765712049761706,1.087832068785871,0.024770257436859514,0.0006135656534882941,-0.00031707724353754595,1.0609447443606355,1.1570331989116258,0.0005786402492176203,0.003669185855856955,0.00012001887133395403,0.0008423017510011667,0.09608845455099035,2.0,1.53375,0.013413524006227195,0.03130453216237783,0.0525,0.12,0.005682099899210824,44.75524475524475,1340.625,78.68548945008857,7.8125,70.74519639169857,1.0,1.0,62.5,5.5242717280199045,49.718445552179105,862.8641931856731,0.11111111111111119,0.14923145799134457,0.0,1358.6334525374289,0.0,0.0071006536511268,-0.1343960751479316,10.409822903378911,108.36441287971213,-29.609862064710857,27.36245771464237,-0.001347474955951368,0.6404629454554991,0.0003111711498143729,0.054852624039637095,56.97231977935323
31,2,1,0.04541991790300329,0.07404070667949046,0.07402951552959136,0.005480369169546009,0.001326121072604932,0.0034289447009811006,0.29414329026305963,-0.00020389718277745382,0.01076073704306222,1.6266840999285643e-05,0.0031521033407191056,0.29071434556207854,3.0,1.0375,0.08443220234998028,0.12459665358648571,0.056249999999999994,0.08625,0.01567595524877103,2.0611015095422855,2.0711169677685515,0.04608770538435753,0.002124076587595338,0.0007391155176409021,2.0203302350489127,2.187437451743838,0.0008522543237373319,0.002091325500230464,2.462730924993513e-05,7.23783073056565e-05,0.16710721669492523,1.0765712049761706,1.0969007961647936,0.03589960122432889,0.0012887813680658364,0.0006793102721397293,1.0609447443606355,1.1759149417606864,0.00022992586491406378,0.00370815857218075,1.660599398760343e-05,0.0010510030566821826,0.11497019740005099,3.0,1.045,0.029837433758597303,0.04757143441924653,0.05407684194849161,-590.8613865377073,113.84395970806608,42.93167701863354,1397.5694444444443,158.85179491247047,95.12176675295765,186.75447020849901,1.0,0.8571428571428571,62.5,131.1087067463251,209.36976463146894,86237.34374610266,0.6262064963253011,0.07952286282306162,0.0,3237.1024264387033,0.0,0.3346656617004529,-0.36248825514058336,10.279231408881449,105.66259835733491,-29.609862064710857,27.36245771464237,-0.004557459224920096,0.6352578069506254,0.0005911178436938259,0.05466225363071272,56.97231977935323
32,2,1,0.05283340180086246,0.07807817531753605,0.07123660619823718,0.005074654062642725,0.0005447540807473547,0.0034289447009811006,0.29414329026305963,5.416857550430755e-05,0.010663750758650569,-1.029254205227592e-05,0.0031955770581577414,0.29071434556207854,4.0,0.7912500000000001,0.06677021710256852,0.09692292633428529,0.049999999999999996,0.0775,0.010728671724067699,2.0840142826644907,2.103375058092285,0.07229613195900289,0.00522673069623356,0.0019709335503808726,2.0203302350489127,2.2068813070554993,0.0011637420130881204,0.0019414264834247367,-1.557854520136311e-06,0.00010638875464281307,0.1865510720065866,1.1210644470219804,1.1088945882224113,0.037268249324326236,0.001388922407700143,0.0008307636923551098,1.0609447443606355,1.1759149417606864,0.00040368080239381785,0.0036357514916869954,-4.093730660346036e-06,0.0010515459378047493,0.11497019740005099,3.0,1.045,0.029837433758597303,0.04757143441924653,0.075,0.11249999999999999,0.003435500562859733,-1.0,-1.0,-1.0,-1.0,-1.0,-1.0,-1.0,-1.0,-1.0,-1.0,-1.0,-1.0,-1.0,-1.0,-1.0,-1.0,0.17717333308362332,0.27595849322979116,2.635337342044755,213.81910322208296,-49.49169722432271,41.05627629812807,-0.015201585608133035,1.04091827445056,0.001596333313822594,0.07814001425893267,90.76731359399855
33,2,1,0.07257989705712686,0.09538153170606606,0.07109512021608672,0.005054516118539822,9.276784414772998e-05,0.010071799648148243,0.29414329026305963,0.0002895267900725912,0.011928888896391177,8.361684493392943e-07,0.0035766315414189273,0.2840714906149114,4.0,0.7931250000000001,0.08587157315893795,0.12122113399415876,0.06937499999999999,0.0975,0.014023719133202907,2.1503828647776944,2.135774728926003,0.059759310816371605,0.0035711752292477083,0.0013038295538863362,2.0223430174416333,2.2068813070554993,0.0009670794172459308,0.0021507713539038677,-9.699367078515782e-06,0.00010309348971440338,0.1845382896138661,1.132859915947569,1.1251910516443702,0.03099673486615504,0.0009607975723627117,0.00045925657896261,1.0638556604639895,1.1759149417606864,0.00040621188687162043,0.004034548845879118,-2.7321425959958567e-06,0.0011870780707384856,0.11205928129669696,3.0,1.045,0.037518107053190995,0.058260330991913856,0.08625,0.12,0.004734714030199915,-1.0,-1.0,-1.0,-1.0,-1.0,-1.0,-1.0,-1.0,-1.0,-1.0,-1.0,-1.0,-1.0,-1.0,-1.0,-1.0,0.17709382865934803,0.27601418737340694,2.636920024251957,213.4118383069706,-49.49237770214677,41.05636652559042,-0.015204191445491745,1.040414410354463,0.0015930120803096877,0.0780425800188702,90.76958493515849
34,2,1,0.07472011074796625,0.09581547177259088,0.06556137864566414,0.004298294369920145,-0.0010479448150913036,0.010071799648148243,0.29414329026305963,-0.0014847729267735688,0.009160702369071978,-0.00017806229822734537,0.0030906244132841605,0.2840714906149114,3.0,0.057499999999999996,0.05823450061993122,0.07445282801936647,0.06999999999999999,0.09500000000000001,0.009544880360455128,2.1551787666808107,2.160358304705293,0.030070987790784785,0.0009042643067135276,-3.662763196306643e-05,2.0857029124669455,2.2068813070554993,0.0006426649308111746,0.002039379360575329,-1.5039554175598953e-05,9.863748350123742e-05,0.12117839458855384,1.1324842501202375,1.1333914063539825,0.017857004515997366,0.0003188726102843503,-0.00035788428514394225,1.0998052064086814,1.1759149417606864,-0.0002802430361614076,0.0030221971110813597,-5.551467131185567e-05,0.0010227470013451409,0.07610973535200505,2.0,0.06749999999999999,0.026721270506446793,0.03893135216515475,0.08625,0.12,0.004734714030199915,-1.0,-1.0,-1.0,-1.0,-1.0,-1.0,-1.0,-1.0,-1.0,-1.0,-1.0,-1.0,-1.0,-1.0,-1.0,-1.0,0.17801474017557145,0.2760535933194535,2.417933390612296,214.55208963951915,-49.48815231816843,41.05580381769687,-0.014772680022617463,1.0504966791383774,0.0016053400203374514,0.07751261855836385,90.7568970862776
35,2,1,0.06742058222581293,0.09326946845772684,0.0804072773890735,0.00646533025712341,0.0010789897134589445,0.010071799648148243,0.3471573835014788,0.0009863088100314184,0.012880766806918619,-1.683380855049922e-05,0.0039492250542031496,0.33708558385333054,4.0,0.0675,0.09782742597001604,0.1324141445117395,0.075,0.1025,0.010100820612897328,2.1731122108813636,2.1726692246502686,0.025213188495174055,0.0006357048740931774,-0.0001493634167856306,2.1372053062454586,2.2109847123395237,0.00019002765718855174,0.0014749430796493247,-1.0489257173313763e-05,9.409357609278815e-05,0.07377940609406508,1.128479830839682,1.1366396341706835,0.02963644525533193,0.0008783188873722864,0.0003055473878354709,1.0998052064086814,1.2291290124416416,0.00037799458541802887,0.0043419034330463065,-1.1035863308383557e-05,0.0013230368840076493,0.12932380603296023,3.0,0.07749999999999999,0.04144408363816184,0.06040448438530251,0.09749999999999999,0.1275,0.006033927497540097,-1.0,-1.0,-1.0,-1.0,-1.0,-1.0,-1.0,-1.0,-1.0,-1.0,-1.0,-1.0,-1.0,-1.0,-1.0,-1.0,0.17694269271603769,0.2761237887813087,2.6261384751851917,212.68038947095073,-49.49248587992042,41.056380095891654,-0.015206442736149826,1.0418367602324168,0.0015914940565813264,0.07817646592831722,90.76999855600297
36,2,1,0.07931019224390229,0.11122209064711085,0.08499792430942942,0.007224647136911492,0.0006231508197103702,0.010071799648148243,0.3471573835014788,7.218274084243674e-05,0.013392071170826728,-7.38456937253805e-06,0.004035352278966726,0.33708558385333054,3.0,0.0725,0.12584181417324364,0.17191827782309133,0.1125,0.1425,0.02795360753270094,2.1731122108813636,2.1759234448582316,0.02903309808811557,0.0008429207845941399,0.0006590013695857552,2.1372053062454586,2.2175720741783396,0.00013481608906718937,0.0013520096727189772,9.263614294963141e-06,6.782458614199753e-05,0.080366767932881,1.1295313702598646,1.1435216536397577,0.03339110514139428,0.0011149659025636476,0.0004233096640682319,1.0998052064086814,1.2291290124416416,6.224504789812309e-05,0.004542834926393544,1.9721178316144117e-05,0.0013776860359763444,0.12932380603296023,3.0,0.07749999999999999,0.04144408363816184,0.06040448438530251,0.09749999999999999,0.1275,0.006033927497540097,-1.0,-1.0,-1.0,-1.0,-1.0,-1.0,-1.0,-1.0,-1.0,-1.0,-1.0,-1.0,-1.0,-1.0,-1.0,-1.0,0.17657020345050733,0.27616939934330437,2.5279104547061664,221.17655221202045,-49.49083658028394,41.05615819897503,-0.015248601610716445,1.045253228278638,0.0016024897287885726,0.07715561431432137,90.76525975950062
37,2,1,0.06091671255424881,0.09429307333114459,0.08797293548161417,0.007739237377252248,-0.0002461770031917876,0.007960961138872538,0.3471573835014788,-0.0004030924302644498,0.012293220888487912,-6.305663385624353e-07,0.003686561993884337,0.3391964223626063,3.0,0.0725,0.10421367788152242,0.1392856523406405,0.105,0.135,0.029975980618747147,2.1984984076424707,2.1872501837610288,0.02795034583454554,0.000781221832270697,0.0006775274677571946,2.1372053062454586,2.22268749246236,0.0007168545162184885,0.0010257233370877489,2.586776419443437e-05,8.276172232122517e-05,0.08548218621690129,1.1291604122331367,1.141745838775553,0.033293328221822495,0.0011084457040860024,0.00014131046068962717,1.0998052064086814,1.2291290124416416,0.00010377585674449149,0.004210538675615214,9.403088730129221e-06,0.0012705926608406074,0.12932380603296023,2.0,0.08249999999999999,0.044836909828099625,0.06694426580328672,0.05334708951970135,-2319.661630966444,138.55086134428922,55.08196721311476,1089.2857142857142,233.36303640509155,192.99247070805637,301.20201900053723,0.8,0.8,250.0,166.68294191368233,247.38870603768476,129545.07261132087,0.6737694075989528,0.2624327516074006,0.0,164096.88503464026,0.0,-0.21186063550284337,-0.2891643031690176,10.990571078266868,120.79265262643615,-31.52423330051784,39.70808539268361,-0.013723934290522004,0.5931883458113677,-0.0003085929012048772,0.04666134622624658,71.23231869320145
38,2,1,0.08369580211350562,0.13020656201778733,0.10500223731584105,0.011025469841332203,0.00010810879566707087,0.007960961138872538,0.3475412424436888,7.750298709120485e-05,0.01709092818662364,-6.142691803834045e-05,0.005143067449643128,0.33958028130481627,3.0,0.075,0.16746889565049913,0.22353605185733172,0.1075,0.13749999999999998,0.032733172448567945,2.210069684713183,2.219046964204973,0.035481438997883016,0.0012589325133604936,0.0008352698623556035,2.16194831579598,2.3120984331002257,0.0012658375759442527,0.0014073262705406682,4.94014391419495e-07,9.12024689133739e-05,0.15015011730424588,1.1462102109617445,1.1640815134799827,0.04067645722695485,0.0016545741725362874,0.0003110067716161001,1.115156249741398,1.2494750294785564,0.00044665669791347227,0.005758030484307733,-2.3356307866942427e-05,0.0017240310744082998,0.13431877973715833,2.0,0.08249999999999999,0.07752207053929183,0.10993720456271461,0.13499999999999998,0.1725,0.0196626259529028,-1.0,-1.0,-1.0,-1.0,-1.0,-1.0,-1.0,-1.0,-1.0,-1.0,-1.0,-1.0,-1.0,-1.0,-1.0,-1.0,0.1776809860500424,0.27627608297185646,2.438300454563107,212.71862806982023,-49.49566491646692,41.056803764775395,-0.014787822499643393,1.0406888740251716,0.0015888752557407747,0.0776547457250653,90.78077197261155
39,2,1,0.06945939308406315,0.11323251856758455,0.09229140130045076,0.008517702754000845,0.00025122169845057297,0.007960961138872538,0.3475412424436888,-0.00037231644531506025,0.014455685587763474,-3.5984690651940254e-05,0.004213878114452938,0.33958028130481627,3.0,1.0475,0.12538717906356747,0.18549743087730555,0.08625,0.11624999999999999,0.02190352595581598,2.2241134818182675,2.251886228083345,0.048833760656941706,0.002384736179899468,0.001258711234828977,2.1972587805791557,2.3210884373607836,0.0008934073872183645,0.0014619598926271724,-6.583994415060302e-06,0.00010214678835826053,0.12382965678162794,1.1655504845068134,1.1692134399906244,0.03770401008804091,0.0014215923767190908,0.0004958225789193549,1.115156249741398,1.2494750294785564,0.00017129741470726378,0.004870006042702499,-1.4562562281837665e-05,0.0014297126709716522,0.13431877973715833,2.0,1.54125,0.05547383485245483,0.08855061511777662,0.13499999999999998,0.1725,0.0196626259529028,-1.0,-1.0,-1.0,-1.0,-1.0,-1.0,-1.0,-1.0,-1.0,-1.0,-1.0,-1.0,-1.0,-1.0,-1.0,-1.0,0.17762370169223934,0.2763356138937387,2.4189955590305097,212.67919918699772,-49.49383100355044,41.05656131915748,-0.014784327096757045,1.0444194759034386,0.0015898923421927762,0.0777834336990585,90.77500358782709
40,2,1,0.09138764618845532,0.12015800551243112,0.09180970685834602,0.008429022273415429,0.0009653889836404772,0.007960961138872538,0.3475412424436888,0.0010284719315736767,0.01633396543895419,2.8056836856091515e-05,0.005290462490119216,0.33958028130481627,4.0,0.800625,0.14208256208684372,0.18523848873201418,0.07875,0.110625,0.02075084071883444,2.3129060546757976,2.2852878036465296,0.05734661496181665,0.003288634247578853,0.0015931735051306613,2.1972587805791557,2.3939589659727654,0.0016027702011533029,0.0015059988319613422,4.072479881153113e-05,0.0001101342130706977,0.19670018539360967,1.1847661418822804,1.18249700962063,0.04132940701624079,0.0017081198843140939,0.0008397514682172913,1.115156249741398,1.2559907478994785,0.0008758188652559174,0.005471819762292687,2.71324619207855e-05,0.0018012402423879838,0.14083449815808047,3.0,1.05,0.05839617383734138,0.08182846568246045,0.11249999999999999,0.15375,0.014091574992302323,61.68674698795181,972.65625,173.77325327761895,0.0,281.25,1.0,1.0,140.625,0.0,0.0,0.0,1.9736066846717215,0.25713551041398813,0.0,0.0,-0.04256685390008885,-0.3275043077036466,-0.03427331539203262,10.82832759436978,117.25267849099002,-38.991655776030356,46.68017742092863,-0.0006259386045456816,0.5619695294978394,8.790161450670114e-05,0.04758221763665971,85.67183319695899
41,2,1,0.15006163777373274,0.15099808964480765,0.08070451925157085,0.00651321942762717,-4.406757319400936e-06,0.018126562125432885,0.3475412424436888,0.0017852006110497837,0.017205034067435846,-9.321112825341298e-07,0.005825989997279611,0.3294146803182559,4.0,0.79125,0.1472305953851039,0.18181887746565456,0.06375,0.09374999999999999,0.01968732115968927,2.3209322655870874,2.344538986074123,0.06495018155673554,0.0042185260842529096,0.0017957453378125048,2.225539471174175,2.4606168644846185,0.001956891171968796,0.001489120042580679,-3.001223805757421e-05,0.00012497276164150705,0.2350773933104433,1.2165305026803717,1.21209880620126,0.03396570801178521,0.00115366932074185,0.000587556165723929,1.134056773514668,1.2820281523076327,0.001227584466875467,0.0057290300520943,-1.1012550692137782e-05,0.0019465914453903402,0.14797137879296463,3.0,1.04,0.04080917909838858,0.0504893973016319,0.06375,0.09374999999999999,0.004784449112824142,-1.0,-1.0,-1.0,-1.0,-1.0,-1.0,-1.0,-1.0,-1.0,-1.0,-1.0,-1.0,-1.0,-1.0,-1.0,-1.0,0.1764941663716379,0.2764608272129948,2.6381479548628572,212.7506558142215,-49.49248267384246,41.05637708865106,-0.015213063129762183,1.0408032510159122,0.0015871233490591164,0.07827943632666458,90.76989357732236
42,3,1,0.004316404432917526,0.005870917982739325,0.005171333219064685,2.674268726260192e-05,2.823726374780573e-05,0.00031042858896552806,0.021378410162717396,-0.0001403244450583007,0.0009466307963444382,1.506075109408973e-05,0.0002768396777830382,0.02106798157375187,1.0,3.0,0.012911231112992833,0.017682384222697793,0.075,0.09749999999999999,0.0017240324617130347,0.6566109721681821,0.6563952378500469,0.030149145925481936,0.000908971000036004,-0.0008702008859048165,0.6034535151523772,0.7096524003513043,-0.0008932151462101319,5.341246131729249e-05,1.9819264547883224e-07,3.0993005738533277e-06,0.10619888519892706,2.3112866850433735,2.320755736674454,0.048735037796073154,0.0023751039089846787,-0.0013804242433175277,2.2252204554671935,2.4248092017712537,-0.0016936300690721551,0.0018085994603550036,1.7195664366976652e-05,0.0006267720252202747,0.1995887463040602,1.0,0.0525,0.015178077914645982,0.016100882991771037,0.0375,0.06,0.0009660529795062622,76.03960396039604,789.0625,185.3720393391355,140.5285162836671,291.3409639780624,1.0,1.0,156.25,180.42195912175805,177.69502197116648,100719.72433715223,1.0153461651336189,0.31705770450221943,0.0,49833.97508114755,0.0,0.12371241504027933,0.10649582565141008,1.5166781621163115,2.3003126474405127,-5.371204743006739,3.637693907667564,-0.0019988428842232326,0.07300149184782932,6.733881337503432e-05,0.006618706391179618,9.008898650674304
43,3,1,0.003125737004829064,0.004789458792385756,0.005121864043638625,2.6233491281518208e-05,-2.408352626902373e-05,0.0001104897295806819,0.021378410162717396,1.7788323101741245e-06,0.0008586913196095853,-3.4585553462749073e-06,0.00026854053478509983,0.021267920433136713,1.0,3.0,0.012911231112992833,0.017682384222697793,0.075,0.09749999999999999,0.0017240324617130347,0.6308076252043511,0.6293672226451719,0.03141308340616181,0.0009867818090824785,-0.0009059836141446792,0.5716648717201631,0.6812529212992054,-0.0009215757847914919,9.293501283796483e-05,-2.2098991477763804e-06,2.619202760346373e-06,0.10958804957904233,2.2830442542806555,2.2745075561201693,0.0543120982609451,0.002949804017506556,-0.0015393778644259167,2.1769778208220916,2.36125741046138,-0.0015126795319474102,0.0017484226711975614,-1.1398050253584128e-05,0.0006621497888032395,0.1842795896392886,1.0,0.0525,0.015178077914645982,0.016100882991771037,0.0375,0.06,0.0009660529795062622,65.70342205323193,913.1944444444445,119.92997249423989,44.70907477445155,100.35337952082132,0.75,0.75,93.75,69.60363156720882,164.31806731486873,35930.81683493861,0.423590860728865,0.121758188238159,0.0,26266.843301769302,0.0,-0.05659213906725476,-0.041016753588709445,1.5792189381680095,2.4939324546684953,-5.371204743006739,3.637693907667564,-0.001194644579159825,0.08109809026812072,1.8139982383632613e-05,0.007125064708995733,9.008898650674304
44,3,1,0.003662718126031807,0.00487044091495681,0.004987874701687834,2.48788940397375e-05,-1.8543575228986224e-05,0.0001104897295806819,0.021378410162717396,8.498259385965554e-06,0.0008245751322234834,-1.2611800794853742e-06,0.0002699647518802792,0.021267920433136713,1.0,3.0,0.012911231112992833,0.017682384222697793,0.075,0.09749999999999999,0.0017240324617130347,0.6029639396678991,0.6007964025665283,0.03429404281099293,0.0011760813723222159,-0.0009888361043707712,0.5403124387526874,0.6561955399845021,-0.0009727557298626252,9.772165865665729e-05,-2.1181328042491067e-07,6.264368331278269e-06,0.11588310123181467,2.223773335082677,2.2277470001080655,0.057681962078532954,0.003327208749229314,-0.0016406996549171238,2.1254664450033163,2.3102217302104213,-0.0015569245573550106,0.0016956406302650084,4.166246690578042e-06,0.0006625227725977198,0.18475528520710505,1.0,0.0525,0.015178077914645982,0.016100882991771037,0.0375,0.06,0.0009660529795062622,61.06007067137809,982.6388888888889,165.2682945458649,194.25337834900066,283.3256739160784,1.0,1.0,78.125,167.12177446401168,105.14127400787947,55202.16947160115,1.5894973314807588,0.1131477709889115,0.0,7865.76088525882,0.0,0.0832212228644232,-0.03298208092063874,1.5425239775967505,2.3793802214609006,-5.371204743006739,3.637693907667564,7.647830113001418e-05,0.08066957299969743,1.6478384441125832e-05,0.007147673461709856,9.008898650674304
45,3,1,0.0020639466265950563,0.004251532360020026,0.005225579993312598,2.730668626650889e-05,-8.872306840306019e-05,9.755174115472183e-05,0.021378410162717396,-2.4653469360710718e-05,0.0007774251430037397,-8.58425745729309e-06,0.0002288394862346911,0.021280858421562673,1.0,86399.1525,0.012911231112992833,0.019309162199057997,0.08249999999999999,0.11249999999999999,0.0021722807473940247,0.5710974379121854,0.5721510534473236,0.034132517754665484,0.0011650287682725545,-0.0009833786849449803,0.5199249009841114,0.6303623428628984,-0.0009267342671249739,0.00016479879330115794,2.01450830027682e-06,8.049997400031639e-06,0.11043744187878701,2.1766511663716486,2.179483283840371,0.06191324614993332,0.0038332500488222334,-0.001772573891236782,2.0857621941969215,2.2939981809102443,-0.001569783296135798,0.0016762231730132076,-3.8195190687007975e-05,0.0007147694573759807,0.20823598671332277,0.0,0.0,0.0,0.0,0.0,0.0,0.0,66.43598615916954,903.125,113.70878374162658,15.625,110.48543456039805,1.0,1.0,125.0,77.33980419227862,11.048543456039852,2684.466378799883,6.999999999999969,0.22158209616662974,0.0,11498.868363396918,0.0,0.18125617588986392,0.009422117655677372,1.3755233855002782,1.8920645840581467,-5.371204743006739,2.8326804141439825,-0.0001794073268900467,0.06790680904870976,1.0856465725862434e-05,0.006143763477665227,8.203885157150722
46,3,1,0.0007180680691689157,0.0017392913006772847,0.0021720039012191983,4.717600946911416e-06,-1.8474532524583074e-05,5.435116396459415e-05,0.007589204623191086,6.184616521493875e-06,0.0002742683080841794,5.247411675602992e-06,9.88514767981154e-05,0.007534853459226492,0.0,0.0,0.0,0.0,0.0,0.0,0.0,0.5398910645101619,0.5448000487563942,0.03079789580220338,0.0009485103858433764,-0.0008843767595075011,0.49416656672608494,0.6024743641834209,-0.0009110101953632548,0.00017766370225773547,-5.204285148957081e-07,1.0572355883279097e-05,0.10830779745733599,2.1244711923020283,2.130327190937066,0.051593378313496745,0.002661876685799596,-0.0014820624039356043,2.0492953017225304,2.222326214698161,-0.0014550533433353792,0.0011126057793612923,2.451770081082494e-05,0.0006150314214948963,0.17303091297563045,0.0,0.0,0.0,0.0,0.0,0.0,0.0,67.36842105263158,890.625,150.68204314051493,128.13452708481816,220.694482684774,1.0,0.75,117.1875,145.9495444708547,147.61284084133734,67682.55657131095,0.9887320346861257,0.2808594298553574,0.0,42190.12981951145,0.0,0.11642325808396237,-0.057697615131290965,1.763082001928987,3.108458145525925,-6.566708950155922,5.632557201869095,0.0018949118957827733,0.07771340805374687,-2.5205702118656204e-05,0.005859539135843064,12.199266152025018
47,3,1,0.0007802476637094541,0.001817491476321362,0.0021637252793233882,4.681707084383074e-06,-4.101516191872902e-05,5.435116396459415e-05,0.007589204623191086,-2.5387650610377364e-05,0.0002457604044458352,-3.5968560271363296e-06,9.71695609812516e-05,0.007534853459226492,0.0,0.0,0.0,0.0,0.0,0.0,0.0,0.5195965882842527,0.5173098784642424,0.02950440320374975,0.0008705098084094387,-0.0008488770804107382,0.4621204175196387,0.5705300041042076,-0.000912371024144992,0.00017745272229366106,1.0184405255502654e-06,1.0463378448394873e-05,0.1084095865845689,2.0859117456394367,2.0855640713984984,0.051003373741087335,0.002601344132973037,-0.0014642754447498879,1.9907469424955608,2.176324511921206,-0.0015595649414072497,0.0010657940963364546,-6.107736608597832e-06,0.0005822929138809887,0.18557756942564518,0.0,0.0,0.0,0.0,0.0,0.0,0.0,67.6056338028169,887.5,142.31621920919625,143.39479060350212,244.4035043052097,1.0,0.6666666666666666,93.75,167.07307221193165,167.88293188839785,88117.64390612076,0.9951760451919879,0.2254283137962128,0.0,77904.89196542969,0.0,0.16104172036566627,-0.009971841799215541,1.9419766891276844,3.7712734611153227,-6.566708950155922,5.632557201869095,0.0005452091337996296,0.08559842939574339,-1.1786635030743241e-05,0.0065893660583049764,12.199266152025018
48,3,1,0.00042033307221246214,0.000825730580793476,0.000977160583123047,9.548428052093733e-07,7.248681655077142e-06,1.6860038409496088e-05,0.004427685314047413,2.2129985855515453e-05,0.00018507687580187924,1.6815105807707144e-06,7.867334651746317e-05,0.004410825275637917,0.0,0.0,0.0,0.0,0.0,0.0,0.0,0.4936413710383138,0.49059989886178024,0.03167428929404523,0.001003260602282868,-0.0009112207125722853,0.4362599466748422,0.5394696902676364,-0.0008663552944198433,0.00016293209692580602,1.2289226277944117e-06,1.0193278790618553e-05,0.10320974359279417,2.0492280370152764,2.0394825680814344,0.05164851987633419,0.002667569605416088,-0.0014811694168582307,1.9575464358240704,2.1234759396007408,-0.0013931072673177586,0.0011032105735622323,1.4610166673755902e-05,0.0005859500062430315,0.16592950377667037,0.0,0.0,0.0,0.0,0.0,0.0,0.0,66.20689655172414,906.25,127.57759076995718,171.875,254.3565718140579,0.5,0.5,125.0,132.58252147247765,121.5339780164378,50621.36600022613,1.0909090909090913,0.18399264029438822,0.0,9422.937810154797,0.0,0.22804284113429812,0.01450632234405178,1.9941188972531934,3.976510176382292,-6.566708950155922,5.632557201869095,0.0008496088507533265,0.09060992861689093,6.1034528486613486e-05,0.00699014380204,12.199266152025018
49,3,1,0.0008105712286184283,0.0012607308146778914,0.0012295132293367345,1.5117027811140457e-06,1.7829631132300123e-05,1.6860038409496088e-05,0.004427685314047413,7.191501125630891e-06,0.00022860914721454975,-1.32345022781406e-06,9.767466645945495e-05,0.004410825275637917,0.0,0.0,0.0,0.0,0.0,0.0,0.0,0.4616167597098162,0.46510559259857887,0.03127953260068915,0.0009784091597175755,-0.0008985194385701832,0.41944315166185653,0.519268275584394,-0.0008369977274535531,0.0001992783351484551,8.123298917090081e-07,9.855066935488774e-06,0.0998251239225375,1.9897028934715888,1.9986955624734344,0.05066242653048101,0.0025666814619563862,-0.0014498933359015538,1.923700380095012,2.0870276711132254,-0.0013759659550122685,0.0008436933558891203,5.8038676738138745e-06,0.00033348808925647553,0.1633272910182133,0.0,0.0,0.0,0.0,0.0,0.0,0.0,-1.0,-1.0,-1.0,-1.0,-1.0,-1.0,-1.0,-1.0,-1.0,-1.0,-1.0,-1.0,-1.0,-1.0,-1.0,-1.0,0.446493622768003,0.1973712046406354,10.253389910675235,-52.33549985631606,-18.604269325733185,18.612161099910736,0.0003899665793643788,0.2730950177307899,-0.00026658659360437434,0.0347319637366212,38.28743600845337
50,3,1,0.0008841175098989586,0.0013012244161230756,0.001188841329723599,1.4133437072589752e-06,-6.738752466267303e-07,1.6860038409496088e-05,0.004427685314047413,-2.194375501323662e-05,0.00019773334866477876,-6.167002081281808e-07,7.954298783674607e-05,0.004410825275637917,0.0,0.0,0.0,0.0,0.0,0.0,0.0,0.43592567334227905,0.4403230679344448,0.026590880654386265,0.0007070749339758137,-0.0007616508790225837,0.3964097941248281,0.49311617535054264,-0.0008142093843841252,0.00019895727616401935,9.452702374259519e-07,9.657913527823924e-06,0.09670638122571457,1.9572210660867093,1.9578554145703533,0.04413251962066355,0.001947679288068253,-0.0012597746611923192,1.8781187298597422,2.0491607723080225,-0.0014318463245110362,0.000863051694557467,-3.7504058504759613e-06,0.0003305926425473722,0.17104204244828036,0.0,0.0,0.0,0.0,0.0,0.0,0.0,73.5632183908046,815.625,78.68548945008857,0.0,125.0,1.0,1.0,78.125,0.0,0.0,0.0,0.9425087808844334,0.24527839097375523,0.0,9876.322989645694,0.0,0.3527601935574507,0.13820455948977442,1.6690946426781945,2.7858769262170497,-4.240431799485913,4.419386236090277,-0.00038563211522964306,0.08199799665016717,-7.65635124296623e-05,0.006742054521187375,8.65981803557619
51,3,1,0.001230281722409451,0.001869249760437602,0.0018179361980181598,3.304892020064722e-06,2.0303700475037934e-05,1.6860038409496088e-05,0.005973545335415862,4.7497241537622364e-05,0.0003206498786539482,4.3339976893965484e-07,0.00014147768215567465,0.005956685297006366,0.0,0.0,0.0,0.0,0.0,0.0,0.0,0.41915698537354784,0.4163105569211918,0.025436349693963647,0.0006470078857536046,-0.0007308624851847568,0.3677241401424138,0.46111310189999366,-0.0007861801239955425,0.00016654070953768654,8.090248550212768e-07,9.604641859004306e-06,0.09338896175757988,1.9230375867545044,1.919132555611132,0.04044547372141317,0.0016358363445495233,-0.0011612519812777126,1.8454938821309803,1.9886588444476168,-0.001209770092725357,0.0009307499880606989,-2.634060069219476e-07,0.0003975395682922744,0.14316496231663645,0.0,0.0,0.0,0.0,0.0,0.0,0.0,73.37579617834395,817.7083333333334,89.60755486502735,93.75,144.05538214520138,0.5,0.5,93.75,77.33980419227862,66.29126073623888,16106.798272799242,1.1666666666666656,0.40791352233326533,0.0,11797.419969198478,0.0,0.3808779297664031,0.1400202220939968,2.0295891492404663,4.119232114714639,-5.479777564504137,11.814242393256032,0.00035898958299887215,0.11985344855532605,-0.0003169337489215638,0.012361066833751712,17.29401995776017
52,3,1,0.0014946305721507194,0.002217354361929456,0.001868288270366919,3.490501061190614e-06,9.318274116372289e-06,5.501996685885155e-05,0.006151131161352736,-2.840327623747686e-05,0.00032410513152973994,1.377051325967858e-06,0.00013551972848968702,0.006096111194493884,0.0,0.0,0.0,0.0,0.0,0.0,0.0,0.3959363426241478,0.3929097474639221,0.02845845767238693,0.0008098838130910386,-0.0008179082004393198,0.3421959840161505,0.4355914000097159,-0.0007844244603850204,0.0001589889050813922,-1.33584253933725e-06,7.679900897225105e-06,0.09339541599356543,1.8775198987164607,1.8814091287499524,0.04660589170255787,0.0021721091413905522,-0.0013366222980176778,1.7996335389673161,1.9568956963493482,-0.0013183784895812085,0.0010126475676266664,-1.344920502486154e-06,0.00042376350023175236,0.1572621573820321,0.0,0.0,0.0,0.0,0.0,0.0,0.0,75.78947368421053,791.6666666666666,119.22419939853748,0.0,93.75,1.0,1.0,62.5,0.0,0.0,0.0,1.2766933535601446,0.21061499578770007,0.0,23929.516681219236,0.0,0.4221861633922642,-0.013058773232690809,2.818349277069809,7.943092647559913,-9.455606111104089,11.814242393256032,-0.004578668697729723,0.1464034295472511,2.2401766009797623e-05,0.013850587697799706,21.26984850436012
53,3,1,0.0009461114250701255,0.001946994377961369,0.0019782859589035826,3.913615335195067e-06,4.461952586673963e-06,5.501996685885155e-05,0.006151131161352736,1.761850555405539e-05,0.00032601772219648497,-4.4624014787386897e-07,0.00013417194819435996,0.006096111194493884,0.0,0.0,0.0,0.0,0.0,0.0,0.0,0.36727364673925433,0.36849960540136995,0.030414270334116138,0.0009250278399566969,-0.0008775614401384681,0.3180351601652385,0.4188708190852392,-0.0008460381074493341,9.20542450409356e-05,-1.8049098699179923e-06,6.619644675767365e-06,0.10083565892000074,1.844948626645528,1.8407266014449557,0.04982235160178181,0.002482266719131571,-0.0014326472368618782,1.7635178398124915,1.9223747934139965,-0.001335966231058816,0.0009631745762609142,-5.358626307455187e-06,0.0004330565558939783,0.15885695360150498,0.0,0.0,0.0,0.0,0.0,0.0,0.0,-1.0,-1.0,-1.0,-1.0,-1.0,-1.0,-1.0,-1.0,-1.0,-1.0,-1.0,-1.0,-1.0,-1.0,-1.0,-1.0,0.44695672499662953,0.19737113983166873,10.254885091951586,-52.390219072130066,-18.604194700717926,18.61214566230774,0.0003876934075841788,0.273083095172478,-0.00026662168471232355,0.03473408364433017,38.28721642494202
54,3,1,0.001082860198922639,0.002070796152061852,0.0019698899083317616,3.880466250947316e-06,-2.4298880813150607e-05,5.501996685885155e-05,0.006151131161352736,-8.644198844166934e-08,0.0003339093785313215,-1.2519251926304441e-08,0.00013409435689785295,0.006096111194493884,0.0,0.0,0.0,0.0,0.0,0.0,0.0,0.3417876962715324,0.34280433617751777,0.02910128028896616,0.0008468845144569703,-0.0008395832306279317,0.2944502293885006,0.3954628911234675,-0.0008489452716200647,6.809507128221089e-05,1.5275815857047208e-06,2.05955430297456e-06,0.10101266173496692,1.7988280541759827,1.7987584443042246,0.04939326374918743,0.002439694503796793,-0.001420507547816514,1.7160811557917255,1.8769210675731796,-0.001348570191377904,0.0009257795411525248,3.927382793649422e-07,0.00042945424593027805,0.16083991178145407,0.0,0.0,0.0,0.0,0.0,0.0,0.0,63.8479809976247,939.7321428571429,162.90055616534767,48.159484398195126,91.77609472242759,1.0,0.5,93.75,62.74366564144144,194.3727391347614,38313.79006255831,0.3228007482980438,0.1520912547528517,0.0,7671.807502298337,0.0,0.20886966267288787,-0.09022238549706278,2.7657541679486415,7.649396117525281,-9.455606111104089,11.814242393256032,-0.0007612925956105983,0.1446817138002347,8.170931525769733e-05,0.013696010674010033,21.26984850436012
55,3,1,0.0008879109835483074,0.0015702503035980263,0.0016411714645473423,2.6934437760444687e-06,-1.1794319079539836e-05,1.477948886979764e-05,0.006151131161352736,-2.5379182541261907e-05,0.00026371470204520947,-3.960604422974093e-06,9.395552068400958e-05,0.006136351672482938,0.0,0.0,0.0,0.0,0.0,0.0,0.0,0.31763742258912353,0.3181887401417792,0.027466350232483533,0.0007544003950934482,-0.0007927148469131181,0.27275554868977814,0.3668231533360949,-0.0007904326409461287,5.0039817682207506e-05,1.884150597280046e-06,1.2470971902398972e-06,0.09406760464631675,1.762347954372263,1.757385926767355,0.04614782433600399,0.0021296216909466826,-0.001325556223474318,1.6888898186666417,1.8444033711600756,-0.0013027562693537045,0.0008617001446214786,-1.0630407973959606e-05,0.00035740402231060353,0.1555135524934339,0.0,0.0,0.0,0.0,0.0,0.0,0.0,62.270270270270274,963.5416666666666,110.73068554931928,89.60755486502735,171.16329922036442,1.0,0.6666666666666666,109.375,117.38987155817338,37.55782578608328,13850.99406710505,3.12557686983231,0.3460806367883717,0.0,14840.114236766436,0.0,0.0634203096099595,-0.08918163867135338,2.5611412784500693,6.559444648180857,-9.455606111104089,9.749506741404588,-0.002395150818500779,0.13092984830178286,0.0002623486845477876,0.010902169179521934,19.205112852508677
56,3,1,0.0009796042525734953,0.0014791880293872634,0.001364135022303454,1.8608643590748454e-06,1.2081356758370577e-05,1.477948886979764e-05,0.004286215823005134,3.0905153631496655e-06,0.00027361702884621066,-9.206736854663704e-07,0.00010011782326102583,0.004271436334135337,0.0,0.0,0.0,0.0,0.0,0.0,0.0,0.2940669295188702,0.29530247082235367,0.02580671082790296,0.000665986323755004,-0.0007443206653460969,0.25372620077609015,0.34137940852691434,-0.0007363881327551759,6.933310288002234e-05,1.7086684319074277e-06,1.1450376432106271e-06,0.08765320775082419,1.7154546613782595,1.7197524074916113,0.04178374831679862,0.0017458816234015712,-0.0012003141559257067,1.6511559651733148,1.798022569384649,-0.0012380321323603857,0.0007716674951791369,3.104531423859617e-06,0.0003403164964129463,0.14686660421133424,0.0,0.0,0.0,0.0,0.0,0.0,0.0,63.47107438016529,945.3125,123.03137303143454,97.26484060928698,204.32338797846907,1.0,0.75,109.375,125.36567606157196,71.60274523368506,28200.589908484402,1.7508501336425641,0.13227513227513227,0.0,14728.99066627304,0.0,-0.03610313636564049,-0.17587256353296915,2.604509738126559,6.783470975996079,-9.882069866319368,9.749506741404588,0.00013476955258295658,0.11180472484525984,1.2211012798288752e-05,0.00962246802176851,19.631576607723957
57,3,1,0.0007870341412809709,0.0012584419028076846,0.0012777114766396706,1.6325466175367278e-06,-4.0690790238727425e-06,1.477948886979764e-05,0.004171536614583962,-3.0055253669276763e-05,0.00023147825798888437,3.5933674525951735e-06,8.43615494981937e-05,0.004156757125714164,0.0,0.0,0.0,0.0,0.0,0.0,0.0,0.2724210591532558,0.2739342733556389,0.023719157667303356,0.0005625984404463956,-0.0006838405566408817,0.23501588008229246,0.3172396850130086,-0.0006912598050123643,6.914699371649095e-05,1.1193876754818829e-06,2.003238934709306e-06,0.08222380493071613,1.6876722916471893,1.6838947259486234,0.039711783876200585,0.0015770257786300648,-0.001141908082302088,1.6193647394121156,1.7611780689320349,-0.0011964813091194838,0.0007133307022160906,1.5337616772702344e-05,0.0002835870901025683,0.14181332951991932,0.0,0.0,0.0,0.0,0.0,0.0,0.0,-1.0,-1.0,-1.0,-1.0,-1.0,-1.0,-1.0,-1.0,-1.0,-1.0,-1.0,-1.0,-1.0,-1.0,-1.0,-1.0,0.44741982722525614,0.19737107502270207,10.25638027322794,-52.44493828794401,-18.604120075702667,18.612130284309387,0.0003854202321109082,0.27307117264008934,-0.0002666567759421922,0.034736203551465034,38.286996841430664
58,3,1,0.001444841086867714,0.002749791018515965,0.0034562960133865516,1.1945982132151771e-05,5.733177158077497e-05,1.477948886979764e-05,0.011947193158948703,6.721010942614972e-05,0.00046403307477983703,-6.848157851102116e-06,0.0002024064321713008,0.011932413670078905,0.0,0.0,0.0,0.0,0.0,0.0,0.0,0.2534210362129349,0.2534802368919105,0.022657581233525455,0.0005133659873538048,-0.0006538354227559267,0.21296083059867227,0.29368362964923983,-0.0006791707617790763,5.761649774823996e-05,-2.205252575724718e-07,3.1635590523637513e-06,0.08072279905056756,1.650603816494405,1.652981666854641,0.034073160764832085,0.0011609802845060926,-0.00097280867791761,1.5986585239651347,1.7148281669647933,-0.0009857743030000864,0.0009067551867730756,-1.1427655997331884e-05,0.00038842473836232463,0.1161696429996586,0.0,0.0,0.0,0.0,0.0,0.0,0.0,-1.0,-1.0,-1.0,-1.0,-1.0,-1.0,-1.0,-1.0,-1.0,-1.0,-1.0,-1.0,-1.0,-1.0,-1.0,-1.0,0.4475356027824128,0.19737105882046038,10.256754068547028,-52.45861809189748,-18.604101419448853,18.61212646961212,0.00038485193639605495,0.2730681920199538,-0.00026666554881061915,0.03473673352796168,38.28694212436676
59,3,1,0.0016620943692779281,0.0029842758262620533,0.0034478804050866426,1.188787928778043e-05,2.5177232068129473e-05,4.704486618659866e-05,0.011947193158948703,-1.644026409004663e-05,0.0004748414774090569,6.6436372202014915e-06,0.00019295724688328338,0.011900148292762104,0.0,0.0,0.0,0.0,0.0,0.0,0.0,0.23468388717732913,0.23290950536342842,0.023885008047945345,0.0005704936094504139,-0.0006884579856833671,0.18949977401025694,0.2720865696167335,-0.0006940963100675501,7.152900004898645e-05,-6.345105432061422e-07,2.879908427565489e-06,0.08258679560647655,1.619492543372038,1.6193801915999437,0.038789022008170505,0.0015045882283503359,-0.0010982271008354372,1.5442259859787257,1.686454764627737,-0.0011959838638564693,0.0010442341583600258,2.4932951935831283e-05,0.0003913743059163803,0.1422287786490113,0.0,0.0,0.0,0.0,0.0,0.0,0.0,-1.0,-1.0,-1.0,-1.0,-1.0,-1.0,-1.0,-1.0,-1.0,-1.0,-1.0,-1.0,-1.0,-1.0,-1.0,-1.0,0.4476513783395694,0.19737104261821872,10.257127863866113,-52.472297895851,-18.604082763195038,18.61212259531021,0.0003842836443742727,0.27306521137389494,-0.0002666743215571266,0.03473726350503245,38.28688716888428
60,3,1,0.0011539125473358635,0.002750582011291731,0.0035255694616783723,1.2429640029119129e-05,-6.29962101890062e-06,4.704486618659866e-05,0.011947193158948703,-1.0233718297712798e-05,0.0004668673408141572,1.0914687008858184e-06,0.00019252044125062602,0.011900148292762104,0.0,0.0,0.0,0.0,0.0,0.0,0.0,0.21256452224580255,0.21190837729624892,0.025298985201609354,0.0006400386522312492,-0.0007298869155708194,0.16953958988050744,0.25311587164977967,-0.0007014177463436938,7.000486420946503e-05,2.7932162341004256e-07,3.921412782729952e-06,0.08357628176927223,1.5973375228868516,1.584396978828234,0.042501286149320305,0.0018063593243464063,-0.0012064581934238027,1.5108409997864847,1.6500516678154953,-0.001164033205173869,0.0010304743900109714,5.599944905220848e-06,0.0003976777725490404,0.1392106680290106,0.0,0.0,0.0,0.0,0.0,0.0,0.0,67.66519823788546,886.71875,93.34221207303531,15.625,22.09708691207961,0.5,0.0,15.625,11.048543456039804,11.048543456039852,383.4951969714119,0.9999999999999957,0.28216704288939054,0.0,0.0,-0.0248941802294127,0.4336479823334042,0.14985972765664618,3.8200478950086927,14.592765920160343,-17.15722992516204,8.769890717601236,0.004382690422772553,0.17406918991954437,-0.00018711170324875576,0.012222306371312108,25.927120642763274
61,3,1,0.0010355037547393918,0.002667383140457018,0.003579815805137974,1.2815081198715642e-05,-6.832979273789633e-05,4.805958902592161e-06,0.011947193158948703,-1.6425459055306678e-06,0.0004662748731694112,-2.9306964928744846e-06,0.00019142387724642565,0.01194238720004611,0.0,0.0,0.0,0.0,0.0,0.0,0.0,0.18912997465714376,0.1911446532598085,0.024314716362490055,0.0005912054317883417,-0.000700280921836623,0.15309199441515228,0.2343518942723658,-0.0006824755917700507,9.46559096731325e-05,4.907676417205409e-07,4.5096799461196155e-06,0.08125989985721352,1.5452695737901267,1.5505263753710332,0.04443104046008147,0.001974117356365397,-0.001268025434905893,1.4839758456816492,1.6196203473319604,-0.0011290407817342752,0.0010318829393501118,-8.623707978156388e-06,0.00040300672002500866,0.13564450165031117,0.0,0.0,0.0,0.0,0.0,0.0,0.0,69.06474820143885,868.75,56.42334401646184,32.10632293213009,65.67458444228382,0.6666666666666666,0.6666666666666666,15.625,32.526031241658316,56.336738679124785,5756.687435313674,0.5773502691896261,0.230361667818475,0.0,454.3395906492598,0.0,0.3138590375083964,-0.10519397417839807,4.162198825017369,17.32389905897597,-17.15722992516204,8.769890717601236,-0.0007092088968682619,0.18091385481282185,8.726419523439535e-05,0.012214066750767996,25.927120642763274
62,3,1,0.0003857369685936037,0.0011834140833663904,0.0017898690222100436,3.2036311166671375e-06,-1.626819064726942e-05,1.208963550491526e-06,0.009074067203665062,1.7554097938506655e-05,0.0004075534294969657,2.7873986149215814e-05,0.00010048959625764536,0.00907285824011457,0.0,0.0,0.0,0.0,0.0,0.0,0.0,0.16925409301261296,0.17061795140470243,0.02255130899046336,0.0005085615371833536,-0.0006498955623166823,0.1306746394861009,0.21216821389293283,-0.0006853262178311958,9.932169228275229e-05,8.514271823837141e-07,7.315939150597973e-06,0.08149357440683194,1.510722616429065,1.5138964972330535,0.038087839393110376,0.0014506835096353707,-0.001092073837981724,1.4573772449607139,1.5960165218085685,-0.0011117712734383463,0.00097377928056103,4.63073534235886e-05,0.00031724695191827536,0.1386392768478546,0.0,0.0,0.0,0.0,0.0,0.0,0.0,70.58823529411765,850.0,53.76453291901642,38.97559777889522,91.9975090242484,1.0,0.6666666666666666,31.25,63.36210969060645,27.559909490256167,5486.018763415089,2.299068134204439,0.4708097928436911,0.0,1978.9397198378156,0.0,0.3206240926549313,-0.03741848274790593,4.023094571686184,16.18528993273084,-17.15722992516204,8.769890717601236,0.00012003389072091827,0.16901424076347954,6.266790105938875e-05,0.011188456901570094,25.927120642763274
63,4,1,0.09927371608945762,0.16691819461478566,0.18519827101130357,0.03429839958557624,0.0027218285026111887,0.009381683862441783,0.7417807856527221,0.00025408048318969074,0.02280312657225406,4.918810949311112e-06,0.006567734589621379,0.7323991017902803,4.0,0.79125,0.12052901474921848,0.17728105634563512,0.047499999999999994,0.075,0.020488454692638908,2.336671331914472,2.3632433108747692,0.06759846050353002,0.004569551862447308,0.0013880885290849334,2.298513851452922,2.5077396454947567,0.0010485762377595224,0.0027391833791457197,2.6510283701952632e-05,0.0001415684664789865,0.2092257940418345,2.145293034688817,2.2195362302654273,0.15020702838089708,0.022562151375019622,0.0028331003593468455,2.0785060529870454,2.6296838375257634,0.0008725400923299209,0.015803715782819135,1.2173602835469088e-05,0.004505486614482913,0.551177784538718,3.0,1.0275,0.09603543126575846,0.1500333872349134,0.06,0.085,0.01746972637284828,65.40145985401459,917.4107142857143,132.24386824641627,7.8125,55.242717280199024,1.0,0.5,62.5,38.66990209613931,38.66990209613937,4697.816162899781,0.9999999999999986,0.3116235587410408,0.0,15773.705111439256,0.0,-1.7616525832018333,-0.46315609723048395,36.38272833295754,1323.7029209497914,-76.48115378023556,126.09134122748411,0.012255725485303738,1.35344498457297,0.0006379861841685483,0.11627685905827718,202.57249500771968
64,4,1,0.08853692548128851,0.16463045735744444,0.1862706233630474,0.03469674512805825,-0.00014480015306011642,0.009962791861965671,0.7417807856527221,0.00029014543519441523,0.022782873098942353,5.543297090010706e-05,0.006457316819525454,0.7318179937907564,3.0,2.0124999999999997,0.13674836499558038,0.21577513045259286,0.05249999999999999,28799.795,1868.8653802013075,2.3858679399561824,2.39079517005716,0.07737258899000514,0.005986517527016264,0.001828521421999622,2.298513851452922,2.5077396454947567,0.00047167506193149245,0.003601921930491806,-4.014523899432872e-05,0.00018309123565269186,0.2092257940418345,2.1975968233518444,2.23692263637334,0.14270714725542843,0.020365329877782536,0.0011576338681857548,2.0785060529870454,2.6296838375257634,0.0005257664110018378,0.015754693494744006,9.103373077798405e-06,0.004438861005360665,0.551177784538718,2.0,1.5225,0.13767502426420464,0.21960318731567474,0.06749999999999999,0.0975,0.025877775947070702,-1.0,-1.0,-1.0,-1.0,-1.0,-1.0,-1.0,-1.0,-1.0,-1.0,-1.0,-1.0,-1.0,-1.0,-1.0,-1.0,-2854548.467939564,267105.4642198449,-6451561.4017296275,-358628945.2384573,68624432.06977397,15713612.511339843,4329.888764567721,-187289.91956427234,-107.632360843935,-10704.485322205755,-57707430.32790923
65,4,1,0.11985021194837799,0.1783912612812897,0.1805396721477546,0.03259457321921872,-0.001914351870010309,0.009962791861965671,0.7417807856527221,0.0006820809003750145,0.022903813808688594,-5.892647450147995e-05,0.0065390431870326095,0.7318179937907564,2.0,3.0,0.19961260083237403,0.3479636346048774,0.06749999999999999,0.105,0.05862017849761031,2.3858679399561824,2.392228608800439,0.07686131595802985,0.005907661890800094,-0.000374867846859986,2.281258037529274,2.5077396454947567,-0.0001829846302475587,0.004014035435217715,-7.80774500490078e-06,0.00021129599118925918,0.22648160796548256,2.2033644956508582,2.2473500166441616,0.13471144404125998,0.01814717315568152,-0.001570278075255301,2.0785060529870454,2.6296838375257634,0.0003350286352025352,0.015891853460835773,-3.5733557088269786e-05,0.004484428613767544,0.551177784538718,3.0,2.0175,0.10259650177528339,0.16642541093796348,0.06375,0.10874999999999999,0.02721453581073772,-1.0,-1.0,-1.0,-1.0,-1.0,-1.0,-1.0,-1.0,-1.0,-1.0,-1.0,-1.0,-1.0,-1.0,-1.0,-1.0,39.66097792628843,5.19631855829992,49.37639377307064,398.9863254697566,-720.506621837616,-97.44644901156425,-0.06550701988178288,-0.9535432037249187,-0.000716999614832557,-0.14911420628912858,670.2361983060837
66,4,1,0.10561066390715522,0.13182205705972563,0.10984072271602714,0.012064984366779162,-0.001433830698721243,0.009962791861965671,0.5982172002313374,-0.004309591757927417,0.012430228622641893,0.0003031352228417696,0.002901703896412976,0.5882544083693717,4.0,0.7875,0.06433156036977863,0.0789785575751968,0.0375,0.06375,0.004104196143634013,2.368443642562579,2.3832978148477983,0.08331740210727909,0.006941789493906033,-0.0020171988053912277,2.281258037529274,2.5077396454947567,-0.0005071582857674839,0.00372449011166859,-2.1983133289605698e-05,0.00020387859642789858,0.22648160796548256,2.1806124821712487,2.2091756465744443,0.09881166842277372,0.009763745816492178,-0.0023811243542190435,2.0795136001847148,2.545092575200027,-0.0033101204384940854,0.00759246630283807,0.00019194780867416532,0.0021542261331410806,0.4655789750153123,3.0,1.0350000000000001,0.03586234176146578,0.04396474771485348,0.045,0.08249999999999999,0.003393966201676397,57.88944723618091,1036.4583333333333,118.19589289489811,123.03137303143454,175.3901900050285,0.6666666666666666,0.6666666666666666,39.0625,93.89456446520805,96.45968321589656,28453.53015136656,0.973407348384638,0.32175032175032175,0.0,28542.168677894006,0.0,-1.8970628317558464,-1.3203380468268866,24.700333156537134,610.1064580439278,-76.47704015698514,69.72502829805768,-0.005011735733440196,1.3259579525656544,-2.577711322564319e-05,0.12327832607535752,146.20206845504282
67,4,1,0.09920309051817577,0.09611281672112991,0.042611061917354004,0.0018157025977245768,0.0005611680397021321,0.009962791861965671,0.16908441540274585,-6.50169687019511e-05,0.008557871640233104,-2.9667742224876875e-05,0.0033053824792927326,0.1591216235407802,5.0,0.639,0.0665444351636148,0.07912319845323164,0.0425,0.0675,0.004728674811556949,2.3488678422248768,2.3582641445921197,0.06550923407561027,0.004291459749173097,-0.0008509226095680838,2.281258037529274,2.506986921557701,-0.001083594026008002,0.00312541602872995,-1.841305455109928e-06,0.00017563285652685996,0.22572888402842706,2.172721853906669,2.167329570686793,0.038330657697858206,0.0014692393195503764,-0.00019720917922519678,2.0795136001847148,2.248308880217847,-0.0007999240173464336,0.006272376512657244,-4.223112677971356e-05,0.002425059007880701,0.16879528003313204,4.0,0.7912500000000001,0.04177636792995543,0.05029509122369458,0.049999999999999996,0.08249999999999999,0.003657740072138366,-1.0,-1.0,-1.0,-1.0,-1.0,-1.0,-1.0,-1.0,-1.0,-1.0,-1.0,-1.0,-1.0,-1.0,-1.0,-1.0,31.133961415596158,5.992255910023982,30.574152292755016,-672.2636385076098,-508.1099286675453,-48.826071202754974,-0.052016309427006274,-1.4292834097439426,-0.0010303785979951124,-0.17042305051123413,491.5866035223007
68,4,1,0.09620151146856115,0.09303969687957062,0.043386397868552175,0.0018823795200083085,-0.000786850206409073,0.019088666666099673,0.16908441540274585,-0.0006136026007460517,0.007921475321022942,-1.4041504551323634e-05,0.003305633861971335,0.14999574873664617,4.0,0.04874999999999999,0.07085570114947283,0.06449403432983966,0.0425,0.0675,0.004728674811556949,2.326474306148394,2.3279023147770292,0.035068530086990325,0.0012298018024621455,0.00035381892794036934,2.2677389032107538,2.3811736847779437,-0.0008586249102591037,0.0028109827059538714,9.549828640391851e-06,0.0001545707973727174,0.11343478156718989,2.142815381376299,2.1442475649889996,0.040060175302846925,0.0016048176452948268,-0.00030134483450998,2.077214556335934,2.2236713240377144,-0.0010145923816565557,0.006156476672691019,-2.9776219395316607e-06,0.002568178614714344,0.1464567677017805,3.0,0.05499999999999999,0.04995547259641361,0.05251126181380957,0.0525,0.07499999999999998,0.003358839359856757,-1.0,-1.0,-1.0,-1.0,-1.0,-1.0,-1.0,-1.0,-1.0,-1.0,-1.0,-1.0,-1.0,-1.0,-1.0,-1.0,31.170506012009742,6.030820030339779,30.215858752626374,-692.0407580294391,-509.7040254473686,-49.1827175617218,-0.05208677869718743,-1.4085203822940437,-0.001096520132383066,-0.16914148797391143,492.92866909503937
69,4,1,0.07038756275032823,0.07509846022253172,0.040220543466642646,0.0016176921167520902,-0.0006590538510906967,0.014655814555515227,0.16908441540274585,-0.0009576987361839872,0.007214129146348476,7.995566577410488e-05,0.0030745479886923415,0.15442860084723062,4.0,0.050625,0.06215914230795749,0.057633204253325285,0.06,0.08750000000000001,0.004958342412544535,2.313642203608782,2.302571649661966,0.06495216598384654,0.004218783865993152,-0.001105319368040456,2.1643498297362727,2.3811736847779437,-0.0009842764145325626,0.0027738118055145385,-1.9779211825137385e-05,0.00011955232483478915,0.216823855041671,2.116452682631026,2.114398654276473,0.06175967946501506,0.003814258007621403,-0.001212642769278803,1.9742527492662378,2.2236713240377144,-0.001384864157351141,0.005735142041322152,2.8039015601251845e-05,0.0024423611491278044,0.24941857477147655,2.0,0.056249999999999994,0.05650664411052553,0.060008441560335024,0.06,0.08249999999999999,0.004185287813062304,50.19607843137255,1195.3125,54.6875,23.4375,104.23175050098698,1.0,1.0,31.25,71.81553246425872,16.572815184059777,3739.0781704712654,4.333333333333314,0.20920502092050208,0.0,6574.4732587625695,0.0,-3.2536573338163515,-0.673832286760248,35.176253711585595,1237.3688251818394,-122.26436661425294,98.69607866738119,-0.005053145194729743,1.7506682481124587,0.0009661006880013422,0.14906183671466042,220.96044528163412
70,4,1,0.05732262677716162,0.06726938873763291,0.04266177337868466,0.0018200269078142474,-0.0003396368229323665,0.009365432601382607,0.16908441540274585,0.0003374126826169524,0.006552208333778545,9.079445417302784e-05,0.002658301614329353,0.15971898280136324,2.0,0.06,0.049925309889540415,0.0610294386795325,0.07125,0.10125,0.005689082180049406,2.265369904638682,2.2630440994350987,0.09299461361785546,0.008647998161934229,-0.002571717404830246,2.1398326702475825,2.3811736847779437,-0.0016697913573772926,0.002239202370699808,-2.1300926894457505e-05,0.00011589447632257742,0.24134101453036116,2.0807896420902363,2.0817453910717605,0.07663156340775612,0.005872396510316946,-0.0020081422821313093,1.967396318513354,2.2236713240377144,-0.0009307351021492402,0.005082161853068389,6.012066159996147e-05,0.0020581153558897306,0.25627500552436033,2.0,1.53,0.06155956310004118,0.06601921521012521,0.07478702626576056,-176.7507717946691,11.343587486729934,53.5191637630662,1121.09375,106.76289350559725,23.4375,104.23175050098698,1.0,1.0,62.5,71.81553246425872,16.572815184059777,3739.0781704712654,4.333333333333314,0.2230649118893598,0.0,2250.6239768480855,0.0,-2.3873816832428694,1.0934990232945698,34.08213963748026,1161.5922422687033,-122.26436661425294,98.69607866738119,-0.007347049169557407,1.7159876661339606,-0.00038578655515088847,0.14802696148288266,220.96044528163412
71,4,1,0.04181597621982533,0.05682045345230689,0.04026153212330023,0.001620990968915536,0.0004075023571360155,0.009365432601382607,0.23575546225100702,0.0017660761214589602,0.01156187828302312,0.0006586734657276722,0.0031547057375346426,0.2263900296496244,2.0,0.0525,0.02182843285645411,0.0265358001646347,0.056249999999999994,0.0825,0.0029011626988900328,2.1717702495235143,2.209440457668337,0.07695815491074126,0.00592255760726565,-0.0019350424965664278,2.1398326702475825,2.376685524106597,-0.0016208371393349945,0.0022642356416753442,3.665856347261169e-05,9.285821563299082e-05,0.23685285385901444,2.0364287034922857,2.0374860863246695,0.05217057876318584,0.002721769288485778,-0.0010531193989061446,1.967396318513354,2.1506153352348454,0.0001152320042231203,0.008682345084277432,0.0004724428096114295,0.0023537507501311997,0.18321901672149132,0.0,0.0,0.0,0.0,0.0,0.0,0.0,-1.0,-1.0,-1.0,-1.0,-1.0,-1.0,-1.0,-1.0,-1.0,-1.0,-1.0,-1.0,-1.0,-1.0,-1.0,-1.0,31.809529548493618,6.1293656303504145,30.13985831294194,-713.8153340310873,-523.4357871413231,-52.29013076424599,-0.05283506239721099,-1.4691651469193812,-0.0012759055695709801,-0.1798052693985101,504.53897082805634
72,4,1,0.07254529483829941,0.1268579537309896,0.13353149012032647,0.017830658853754847,0.002276897627621053,0.009365432601382607,0.5309810714903884,0.000475504115596935,0.01824683016997527,-0.00013510852086308332,0.004772469314482101,0.5216156388890059,2.0,1.515,0.1598453209907139,0.2594445955383173,0.06,0.08625,0.034502689257063526,2.1717702495235143,2.186314996668241,0.044016474062203645,0.0019374499888686462,0.00032891930496306907,2.1398326702475825,2.291115766925174,0.00022827852055108954,0.0027040869959436354,6.629879299543673e-05,5.0056073269449044e-05,0.15128309667759154,2.0364287034922857,2.0699452080715512,0.10731811088170842,0.011517176923218663,0.0017953415002326255,1.967396318513354,2.358949034141088,0.0004802613748586241,0.012736018548310227,-4.4594790350466206e-05,0.003286632233893859,0.3915527156277341,2.0,3.0,0.1394795816279899,0.22037754502495766,0.15,0.1875,0.07087552150872801,-1.0,-1.0,-1.0,-1.0,-1.0,-1.0,-1.0,-1.0,-1.0,-1.0,-1.0,-1.0,-1.0,-1.0,-1.0,-1.0,42.59678048223217,4.992908447993712,55.541813466422305,727.4802253387752,-787.8601759076118,-112.86091673374176,-0.06967153011184368,-0.6879674959208076,-0.0007054939237845259,-0.13054167353499063,726.8482538461685
73,4,1,0.0899142983403472,0.13221124767278997,0.13182330966407554,0.017377384970790753,0.000739454241798325,0.009365432601382607,0.5309810714903884,0.0011911005836232008,0.018573018760099442,4.277254169834076e-05,0.004791399830178452,0.5216156388890059,2.0,1.515,0.1598453209907139,0.2594445955383173,0.06,0.08625,0.034502689257063526,2.183032783066416,2.2139365138209817,0.07170513188211763,0.005141625938231883,0.0019361907190848546,2.1398326702475825,2.3247586676838816,0.0012886164494972264,0.00180016439833608,5.50472444861283e-06,9.941477860295103e-05,0.18492599743629912,2.0922912316332924,2.092596549144092,0.10630596017348534,0.011300957168406652,0.0018465449294733384,1.967396318513354,2.358949034141088,0.0017490921482455873,0.012696148601507713,4.1517796016815135e-05,0.003288322086198181,0.3915527156277341,2.0,3.0,0.1394795816279899,0.22037754502495766,0.15,0.1875,0.07087552150872801,65.08474576271186,921.875,157.02930658001392,70.26425814183355,224.80460265528373,1.0,1.0,70.3125,129.58182608984092,189.44305707784596,77121.00170842675,0.6840146484576267,0.18086453246518358,0.0,91439.42497099456,0.0,-3.456180792843755,-0.11882230292187916,40.6194765867104,1649.941878178314,-87.8797433724484,116.70186868776284,0.012174503338578816,1.6643064143245863,-0.000859871710718016,0.13132475001991495,204.58161206021123
74,4,1,0.09396060115514136,0.13708522048139513,0.1295120462816886,0.016773370132070253,-0.0008975532879133368,0.016848030729246337,0.5309810714903884,-0.0007684436803000175,0.01851811608723585,0.00014181603363516801,0.004626644523079631,0.5141330407611421,2.0,3.0,0.1646782506246635,0.3046496317478121,0.075,0.12,0.03961083192563615,2.2758719064478816,2.250584234490437,0.06556172107066986,0.004298339269748317,0.0016183716884453872,2.140092730160082,2.3247586676838816,0.0010687162146458503,0.0020553638605487574,-1.3828362429973984e-05,9.531520037857137e-05,0.18466593752379978,2.1184475180042908,2.1212977126718844,0.09350440848478138,0.008743074406088857,0.0004962644032490822,1.9719966268428422,2.358949034141088,0.0002113901676925008,0.01289670901223441,7.520395975683658e-05,0.0032688154435022466,0.386952407298246,2.0,3.0,0.11587275379340145,0.21968910725264357,0.09375,0.1425,0.03842981311922747,64.0,937.5,157.41751312195223,0.0,125.0,1.0,1.0,132.8125,0.0,0.0,0.0,0.23344059690059948,0.26680896478121663,0.0,0.0,-0.03876749479301478,-7.778432262369871,-2.8369953170017106,44.87782266306875,2014.018966977847,-101.59676998848812,116.70186868776284,0.051714217837998004,1.7799618982638568,0.00022010700136726468,0.1360821668471751,218.29863867625096
75,4,1,0.10520961769267195,0.1495116757846677,0.13169216360171954,0.01734282595410206,-0.0019779256633224935,0.026595687845071707,0.5309810714903884,0.0010927289901959854,0.01923531770126416,-0.00048673282583969516,0.004825790992663646,0.5043853836453167,3.0,2.0225,0.1352925128205279,0.21213796538490823,0.06249999999999999,28799.809999999998,12885.580448461204,2.2758719064478816,2.2757235954156982,0.03645913497291716,0.0013292685229733914,0.00012693731489274383,2.1845188020147113,2.3247586676838816,0.000571020525689984,0.0021258974409430215,-2.1718450522391814e-05,8.651735087906017e-05,0.14023986566917035,2.1280154484079707,2.1471895792774216,0.07574707004267422,0.005737618620049794,-0.0012805160858032371,2.046690506404161,2.358949034141088,0.0011411239342333864,0.013153414376810002,-0.00035388370193748333,0.0033753128768655677,0.31225852773692697,3.0,2.0225,0.09247886682717994,0.12859613763453406,0.057499999999999996,0.09499999999999999,0.014058213985813953,-1.0,-1.0,-1.0,-1.0,-1.0,-1.0,-1.0,-1.0,-1.0,-1.0,-1.0,-1.0,-1.0,-1.0,-1.0,-1.0,3247191.8959675487,-297787.23835003504,7325621.9300286155,407139561.24602854,-77776031.23086697,-17809680.7499412,-4910.670780752284,212408.09709379182,125.94449237155722,12086.003761080534,65405520.41990429
76,4,1,0.09726906163887612,0.11678891295363111,0.0857386828130936,0.007351121730524273,0.001038291356824623,0.026595687845071707,0.3997394341322789,0.00032330476410435196,0.015231364963805479,6.480351542324324e-05,0.004239591543508093,0.3731437462872072,3.0,1.05,0.11077317403133873,0.18288399148671633,0.057499999999999996,0.09749999999999999,0.018543796842750346,2.2782615875931413,2.2832263168757105,0.02615498164440579,0.0006840830648192039,-0.0005896483411078936,2.2498869733194202,2.3247586676838816,-5.630515366463381e-05,0.0013491345483624205,-1.6443646721523802e-05,8.408347784779699e-05,0.0748716943644614,2.1177059553118234,2.129816461333629,0.05595480472948749,0.003130940172315075,0.0003098731201403907,2.046690506404161,2.3033461309085324,0.00018177069663213863,0.010539365196896707,1.548762527767607e-05,0.0029865163906246414,0.2566556245043712,3.0,2.0225,0.07306939038151168,0.1213061447465645,0.05249999999999999,0.09249999999999999,0.012557486876741825,-1.0,-1.0,-1.0,-1.0,-1.0,-1.0,-1.0,-1.0,-1.0,-1.0,-1.0,-1.0,-1.0,-1.0,-1.0,-1.0,32.913879479745596,5.846164691619102,34.13871051086032,-461.618629810054,-555.1387994289398,-59.579931408166885,-0.05501896512084706,-1.3620352908637925,-0.0010010511556760274,-0.17067648368878002,531.1645715236664
77,4,1,0.09784048852591759,0.11728672387742493,0.08581159062482416,0.007363629085562409,-1.229835880693304e-05,0.03139257239863283,0.3997394341322789,0.00013741872260674779,0.01574925873005195,0.00013713475371440013,0.004354356686064695,0.36834686173364606,3.0,0.06999999999999999,0.11991178986923069,0.17248102405498864,0.057499999999999996,0.09000000000000001,0.016927117849473573,2.2782615875931413,2.2766366943114402,0.018732471138044236,0.0003509054749376603,-5.28753428082971e-06,2.2498869733194202,2.3173661615474312,-0.0002670933409719467,0.001095433654518231,5.746651079240513e-06,5.4391743461179333e-05,0.06747918822801102,2.111930508779449,2.1255937259587836,0.056965713754141716,0.0032450925435188105,-1.4372432381112382e-05,2.046690506404161,2.3033461309085324,-0.00010381446846204715,0.010928241299754997,0.00011704453568771034,0.003070816408922109,0.2566556245043712,3.0,1.045,0.08172588164621726,0.11894223519666329,0.06,0.09000000000000001,0.012191296434437204,64.53781512605042,929.6875,168.8295530076118,187.5,312.5,1.0,1.0,109.375,176.7766952966369,132.58252147247765,73631.07781851078,1.3333333333333335,0.26903416733925206,0.0,0.0,0.2248822172879098,0.47233773690153835,0.13087104782021963,37.984928015004115,1442.8547563050447,-101.59676998848812,80.74318770542158,-0.020580732554535002,1.493782478859516,-7.659645047103265e-05,0.12377388358212858,182.3399576939097
78,4,1,0.12403309135545172,0.14654793772507843,0.09220540918822555,0.008501837483568109,0.0004507758531460378,0.03139257239863283,0.3997394341322789,0.0016875358316732665,0.018357764226463468,-3.698465502909749e-05,0.006904956842159026,0.36834686173364606,4.0,0.06187499999999999,0.1657777289128351,0.18473117076744647,0.057499999999999996,0.085,0.01853558729035307,2.282774651081338,2.2753613042567604,0.016382389000541665,0.0002683826693650685,0.0004043817954736402,2.2498869733194202,2.3059983435774,0.0003245080639242374,0.0009082410779637893,3.125795609821661e-05,6.603373549241057e-05,0.05611137025797985,2.133296814445651,2.144846320280275,0.0636162068659007,0.0040470217760050714,0.0005870619343263484,2.046690506404161,2.3033461309085324,0.0013882319406043138,0.013031344268686833,-1.5137817826903673e-05,0.0050555547773902445,0.2566556245043712,4.0,0.793125,0.12022461481678537,0.13215854375148783,0.06,0.08749999999999998,0.013782525700773957,71.11111111111111,843.75,78.90238233095373,0.0,78.125,1.0,1.0,39.0625,0.0,0.0,0.0,-0.7319091859176843,0.2963841138114997,0.0,0.0,-0.30291507494862874,-1.5372718755733974,0.4470324806992224,44.68287036122904,1996.5589037184006,-124.4097260283536,191.76899138557715,-0.05227650299708005,1.8128525500278303,0.002078628928312897,0.15015133126223998,316.17871741393077
79,4,1,0.1388205148634558,0.15308091281800534,0.0864905560037768,0.00748061627784245,-0.00019077953549783683,0.02949564488215055,0.3997394341322789,-0.003145857219343621,0.014266236842636754,3.897796957660459e-05,0.005887259617711772,0.37024378925012835,4.0,0.052500000000000005,0.12121123609234498,0.10586557786490347,0.049999999999999996,0.0725,0.006941961654229177,2.289253565534028,2.2980421287600943,0.031545768168619176,0.000995135489348267,0.0007937520669404436,2.251799149784496,2.376554567070221,0.0010469485824544157,0.0010483760260470033,4.311101257206684e-06,7.652319278843894e-05,0.12475541728572503,2.1551762246005106,2.165075638955922,0.05705581877032341,0.003255366455551989,0.00041367411587599337,2.0782815856806716,2.3033461309085324,-0.0014404153880487659,0.010248071997830413,1.28655892453348e-05,0.00443834315208449,0.2250645452278608,4.0,0.058124999999999996,0.09128612461547281,0.08010612504161807,0.0525,0.075,0.005447644017208081,-1.0,-1.0,-1.0,-1.0,-1.0,-1.0,-1.0,-1.0,-1.0,-1.0,-1.0,-1.0,-1.0,-1.0,-1.0,-1.0,26.342568694586827,6.405545623871761,19.936157211840857,-1246.579292100528,-396.9465129375458,-23.382227957248688,-0.045037169541485636,-1.6088300135415816,-0.0012063467760131908,-0.17438815843721522,398.05589175224304
80,4,1,0.11888185513893025,0.1255805897193038,0.07861084539328006,0.00617966501344618,-0.00030797602744071106,0.024427615200504838,0.32255406704556844,1.6485106119274359e-06,0.01456774278305788,0.0004158381955200942,0.006209862739914556,0.2981264518450636,4.0,0.05249999999999999,0.1352939563002905,0.11437162493774455,0.0525,0.075,0.00813747644061856,2.3072087086813324,2.3245450198184696,0.03821664066544017,0.0014605116237513753,0.0009923860543261508,2.282682184706531,2.3799329790314836,0.0006209228258307516,0.0012770994309506825,-1.610753044423337e-05,8.693292395420251e-05,0.09725079432495276,2.156737073669756,2.1642764781800614,0.050726885514440684,0.002573216913995172,0.0004693179830620282,2.0782815856806716,2.2901217210437856,0.0004394290201529723,0.010400241506941025,0.00027247631433932606,0.004615030828920377,0.21184013536311408,4.0,0.05437499999999999,0.10014850600337999,0.08417112531972115,0.057499999999999996,0.0775,0.006111803314550734,67.84452296819788,884.375,84.77912478906585,7.8125,70.74519639169857,1.0,1.0,62.5,5.5242717280199045,104.96116283237814,1821.6021856141992,0.052631578947368446,0.22624434389140272,0.0,17756.05282963576,0.0,1.3233675592226952,1.7499422967414986,45.7000087271266,2088.4907976594473,-124.4097260283536,191.76899138557715,0.0126623394299431,2.001226321572308,-0.0001958767700534915,0.16601606110667047,316.17871741393077
81,4,1,0.130888110526422,0.14202383137351982,0.07844377856283363,0.006153426395214878,-0.0009561640099527118,0.024427615200504838,0.32255406704556844,-0.0001351945506587832,0.015426867886485309,7.94092025943523e-05,0.006423972522916519,0.2981264518450636,4.0,0.05437499999999999,0.1493531154164218,0.1371699177498313,0.058124999999999996,0.08249999999999999,0.011921699809460248,2.357931786504988,2.3423952178942735,0.034860004430237575,0.0012152199088761833,0.0008252837246494667,2.282682184706531,2.3799329790314836,0.000759167657698003,0.001262837964497695,1.652889157365463e-05,9.219452970352058e-05,0.09725079432495276,2.1808873449411728,2.1880079045938583,0.043503172541790674,0.0018925260212008103,-9.12680466028794e-05,2.124462193850234,2.2901217210437856,0.000437784471581328,0.011028494681667523,5.774711062893252e-05,0.004770597326201247,0.1656595271935517,4.0,0.056249999999999994,0.10952078709972612,0.10066046356378344,0.061875,0.08625,0.008849905418903311,-1.0,-1.0,-1.0,-1.0,-1.0,-1.0,-1.0,-1.0,-1.0,-1.0,-1.0,-1.0,-1.0,-1.0,-1.0,-1.0,26.584870062089337,6.384583229144529,20.478033320335545,-1216.8050452081332,-402.62848377227783,-24.68405643105507,-0.045396233657692436,-1.582893473387918,-0.001198167868882021,-0.17236061933703134,402.8290343284607
82,4,1,0.09365099412708383,0.1084604934043038,0.07171027366899893,0.005142363349682722,-0.0008580996401471615,0.008538859181615859,0.26160720618008004,-0.002061355396729194,0.011855942249762065,-5.35598770085227e-05,0.0037033993840087515,0.2530683469984642,3.0,0.065,0.1206312384802964,0.14212646434357254,0.065,0.09249999999999999,0.013647737910720548,2.3704437160846443,2.367139016300252,0.019252886081718063,0.00037067362247561307,0.00039398425881871033,2.308419073785265,2.392541097228637,0.0006005756394844483,0.0013208844334114448,-3.5446489713329234e-05,8.997578424040447e-05,0.08412202344337238,2.174257456980407,2.1819918424214544,0.04117247843058726,0.0016951729801171732,-0.00032049001613424627,2.1205048366392756,2.277831727786401,-0.0010251042101567262,0.008062800972246771,-6.554318161873796e-05,0.0025959162709426045,0.15732689114712528,3.0,0.065,0.08395162021940195,0.10149843836543433,0.06999999999999999,0.09999999999999998,0.010448832832323443,-1.0,-1.0,-1.0,-1.0,-1.0,-1.0,-1.0,-1.0,-1.0,-1.0,-1.0,-1.0,-1.0,-1.0,-1.0,-1.0,30.59677565879424,6.058156835139483,28.98920805284456,-746.1527853902594,-499.6242302060127,-46.87569287419319,-0.05150628522600059,-1.4274905185759483,-0.001099580391594435,-0.16987928742745873,484.44686555862427
83,4,1,0.08443267239988111,0.0952148889293731,0.06377975315705733,0.004067856912775165,-0.00024646440328466223,0.005868856582023312,0.2571696703498755,6.806114691358522e-05,0.013440643023537674,4.99428231359071e-06,0.004220445803102749,0.2513008137678522,4.0,0.0675,0.12406611488433536,0.15387286382408363,0.0675,0.09562499999999999,0.015199995067512854,2.370325277752674,2.368739857842657,0.015588006948867857,0.0002429859606379526,-0.0001433203385662058,2.3367984061552756,2.392541097228637,-0.0003279646441801139,0.0011047900575279406,-2.5628932284878686e-06,0.00010358484136285558,0.055742691073361605,2.1676130127706035,2.173849175114921,0.04187904293322963,0.001753854237003291,-0.00027058525710871507,2.1119609506122754,2.277831727786401,-0.00017027797331919576,0.009257258444617698,1.130099360257449e-05,0.0029220475624380437,0.16587077717412546,4.0,0.0675,0.08444734689591948,0.1057497850246264,0.0675,0.09749999999999998,0.01050296068679214,57.744360902255636,1039.0625,104.52412625202854,15.625,49.41058844013093,1.0,0.5,93.75,11.048543456039804,143.6310649285175,4985.437560628335,0.0769230769230769,0.24067388688327315,0.0,17798.796587730318,0.0,-0.451098640180451,-1.6049952945355086,50.81332423319383,2581.9939196276837,-210.6980883345162,162.6374206001732,-0.041031350506808464,2.3646532185700524,7.151946681418463e-05,0.1982872396579914,373.3355089346894
84,17,1,0.034999740081188446,0.06974898274478593,0.0932885750862266,0.008702758241618537,-0.0016836332782313344,0.006913209237543537,0.42309152197137034,-0.0035357380717100984,0.0076671526619840205,0.00010822381680605783,0.0020139898236445435,0.4161783127338268,2.0,0.06,0.06506824319396114,0.051287077976253245,0.08249999999999999,0.105,0.0086615288789713,-0.046552740563237716,-0.06728154155799167,0.07879921629439066,0.006209316488610161,0.001549397639088719,-0.3600372991837202,0.0017728192410315646,0.003068991292220942,0.005543156009000056,-0.000131208602872042,0.0002880809944298508,0.36181011842475175,1.081954999206991,1.0810191641442017,0.0074702642632968885,5.58048481634906e-05,-3.281244457206401e-05,1.063987237897193,1.096103391877745,-0.0001219959096556672,0.0012699302338037993,-1.1222967251332816e-05,0.0006062729179727026,0.0321161539805519,0.0,0.0,0.0,0.0,0.0,0.0,0.0,88.02292263610315,681.640625,197.47822701878903,208.90221808001465,331.8243840874266,0.75,0.75,171.875,185.53659510996746,185.12493142301224,107905.69484970334,1.0022237074379494,0.36697247706422015,0.0,125811.35071473617,0.0,0.06389950965538546,-0.22109387721067805,5.341500801687821,28.53163081443163,-30.72597955550903,21.890747189352044,0.0006180203035898738,0.3197911403734672,0.00016272552276639738,0.034685534146108817,52.616726744861076
85,17,1,0.016823079253104563,0.0239514231845548,0.022911824000492017,0.000524951679029522,-0.00028981688788362413,0.0004353315945193642,0.09455350477955833,-0.00021803971866965125,0.004258967865453267,2.479057835529064e-05,0.001880378016036478,0.09411817318503897,2.0,0.06,0.06506824319396114,0.051287077976253245,0.08249999999999999,0.105,0.0086615288789713,-0.021134126582149748,-0.030107152262961456,0.026168294472725215,0.0006847796356112609,0.00042120285067582993,-0.07755178627862169,0.0017728192410315646,-5.34960096964567e-06,0.0016819382505625367,-2.486102888661565e-05,0.00016316753073360648,0.07932460551965326,1.079336421615776,1.0788975733080914,0.006346555303477045,4.027876422009261e-05,3.402037840307262e-05,1.063987237897193,1.0930057233032997,-4.910376886708793e-05,0.0012335049467194661,-5.276513503959616e-06,0.0005881527904793454,0.02901848540610663,0.0,0.0,0.0,0.0,0.0,0.0,0.0,110.54545454545453,542.7631578947369,162.2881103097896,155.90587104083028,284.1001418954239,0.9,0.7,62.5,200.2927544870258,141.0756667536964,88770.20511036356,1.4197540872637968,0.6794137629816558,0.0,118826.58961796032,0.0,-0.02703580783745527,-0.17333063222523032,4.7220218261502165,22.297490126639023,-30.72597955550903,21.890747189352044,0.002642243128829673,0.2865427214876994,0.00016173428186642595,0.03236019037249744,52.616726744861076
86,17,1,0.007316665813215019,0.017173749857272273,0.02404985435759525,0.0005783954946215433,-0.0004527697337640984,0.00016230275241585688,0.09455350477955833,-0.00031064276266076687,0.004192983863141258,5.454960739246844e-05,0.0018462307045179805,0.09439120202714248,1.0,0.045,0.11329616296976591,0.0824907512282981,0.08249999999999999,0.105,0.0086615288789713,-0.026333283893121284,-0.029827309423503753,0.024662923220523054,0.0006082597817814152,0.00024614314985676046,-0.07755178627862169,0.0017728192410315646,0.00018190220170495505,0.0013234971967465035,1.640995273472871e-06,9.685304032099492e-05,0.07932460551965326,1.0767483793006083,1.07723693374628,0.007190101624652088,5.169756137282459e-05,-5.2351400272748046e-05,1.063987237897193,1.0930057233032997,-3.1799504621204955e-05,0.0012551023833954858,1.1601143949303376e-05,0.0006002206476991616,0.02901848540610663,0.0,0.0,0.0,0.0,0.0,0.0,0.0,126.03938730853392,476.0416666666667,143.87072225516292,128.23927830426993,188.02011195614153,1.0,0.4,46.875,90.67886330341818,135.2081728298996,38517.57031029893,0.6706611102384905,0.4204625087596356,0.0,5990.291572454899,0.0,0.2787457720502078,0.21325551556489927,4.704964591313912,22.13669180551769,-30.72597955550903,21.890747189352044,0.003109486315997509,0.2870978702988884,-8.992298963570328e-05,0.03283909349391696,52.616726744861076
87,17,1,0.007316665813215019,0.014069599279269821,0.015556063608245407,0.0002419911149837771,5.583135733536321e-05,0.00016230275241585688,0.06400659070974302,-0.00021565033424020117,0.001971523342940579,0.00011326800339939811,0.0006159963515238712,0.06384428795732716,0.0,0.0,0.0,0.0,0.0,0.0,0.0,-0.026333283893121284,-0.03128623931934527,0.026165430086735268,0.0006846297316238313,-0.0006859038388793667,-0.0814771714184922,0.0017728192410315646,-0.0004098078028060346,0.0010184943324239608,-2.33108334015177e-05,5.554689355264385e-05,0.08324999065952376,1.0741775864295624,1.0761528631175032,0.005779939963918694,3.340770598650444e-05,-0.00015604404966689705,1.0668086727676325,1.08930726897756,-0.00016609415406059757,0.00048061308246943727,2.4726300119687813e-05,0.0002451487097174621,0.022498596209927557,0.0,0.0,0.0,0.0,0.0,0.0,0.0,117.97235023041475,508.59375,156.59921912221498,132.44434267363027,235.98405997545683,0.9,0.7,62.5,163.76088346465707,146.44634923112628,75342.25159571618,1.1182312452610508,0.39362330249950794,0.0,184264.91747495066,0.0,0.13624007060735974,-0.014833355412274611,2.944925307603894,8.67258506736589,-8.400981628795783,9.18937121757399,-0.004337869357190711,0.13795804216779747,-0.0002496467128218292,0.018982261590806414,17.590352846369775
88,17,1,0.010125934550817816,0.05331665718691127,0.08164846105672528,0.006666471192931584,0.0016903322150313648,0.00016230275241585688,0.31042572771714383,0.00084072165107042,0.01282818275979031,-3.801550943541455e-05,0.005954145445749246,0.310263424964728,2.0,1.53,0.18443993489937646,0.15012251612346267,0.105,0.1275,0.03434246275607934,-0.04601107828789741,-0.04575753706579898,0.025567278645907184,0.0006536857373574614,-0.0006235343216305735,-0.08165181372805841,0.0002864388599900236,-0.0002789330743271682,0.0012103323757926751,2.749129232317802e-05,5.46419902644358e-05,0.08193825258804843,1.0738105532912634,1.0822253666418165,0.017579785788932954,0.000309048868384769,0.00026351569694839524,1.0668086727676325,1.1500110227679436,0.00014455072867197808,0.00372071479269558,-4.38335541033628e-06,0.0019573881573880215,0.08320235000031118,1.0,0.06,0.09726089931542248,0.07586416163888887,0.09749999999999999,0.11249999999999999,0.008534718184374998,107.66355140186917,557.2916666666666,167.67274467114672,116.02431984346596,184.32644134569153,0.8333333333333334,0.5,62.5,129.69952671811404,151.411633819541,61694.65071113738,0.8566021212920507,0.4789845527481738,0.0,99393.43639832667,0.0,0.34224048772706583,-0.05989814780312986,6.487917007633131,42.09306709793524,-27.523187580111546,23.533640810347308,0.005428998512002029,0.3593620561814131,9.085822406599131e-05,0.0355810092060112,51.056828390458854
89,17,1,0.03596460995628355,0.0661553757030112,0.07773754619044963,0.00604312608771229,0.0008478412692737597,0.00016230275241585688,0.31042572771714383,9.994090823843641e-05,0.012969808642352296,-1.3120889533758257e-05,0.00596270472024097,0.310263424964728,2.0,1.53,0.18443993489937646,0.15012251612346267,0.105,0.1275,0.03434246275607934,-0.04601107828789741,-0.041853442561970176,0.03227402777246281,0.001041612868657701,0.00042908804335426153,-0.08165181372805841,0.028999284905908196,0.0004499096073660206,0.0015379137819373219,1.2613194555678257e-05,7.146872862962219e-05,0.1106510986339666,1.0738105532912634,1.086407243323128,0.018106432132614685,0.0003278428845729816,0.00031929621911996333,1.0668086727676325,1.1500110227679436,0.00014578653575032796,0.003721546339690082,7.899868401836189e-06,0.001957761454626397,0.08320235000031118,1.0,0.06,0.09726089931542248,0.07586416163888887,0.09749999999999999,0.11249999999999999,0.008534718184374998,128.2034976152623,468.0059523809524,121.55561310636543,88.4937830080531,139.68144095733214,0.8333333333333334,0.75,46.875,98.55919368221412,77.0047723961846,23843.206279393453,1.279910200566965,0.5091649694501018,0.0,40343.74508242245,0.0,0.8380775692711417,0.23715374226980326,6.713345216253902,45.06900399259915,-27.523187580111546,23.533640810347308,-0.001392918504291923,0.3580866589303177,-9.42672832738505e-05,0.03519110670344868,51.056828390458854
90,17,1,0.03596460995628355,0.0675755003050757,0.07659875773544994,0.005867369686614153,-0.0007240158317239159,0.0016320498052865564,0.31042572771714383,2.073457713923013e-05,0.012965909654209289,-2.218098743576932e-05,0.005960248778592519,0.30879367791185725,2.0,1.53,0.18443993489937646,0.14796321213806451,0.10874999999999999,0.14625,0.01936356783276898,-0.03292620630451526,-0.02561965361898432,0.0444327202389349,0.0019742666278314554,0.0011628690289734252,-0.08165181372805841,0.03159780343931384,0.0005840266177019641,0.0014510266723130475,2.580106033524728e-06,7.815341094082035e-05,0.11324961716737225,1.0900635417278315,1.0907633533845484,0.015877945943243033,0.00025210916737654793,0.00010663749013989055,1.066871713183668,1.1500110227679436,0.00014881063920037889,0.003714941272757816,-7.52921625321081e-06,0.0019530487138285349,0.08313930958427562,1.0,0.06,0.09726089931542248,0.07586416163888887,0.09749999999999999,0.11249999999999999,0.008534718184374998,116.95431472081218,513.0208333333334,149.98281874981177,133.3320046702507,159.234882384034,0.5714285714285714,0.42857142857142855,15.625,102.87248769466885,89.73103233143652,28999.58474433239,1.1464538523828878,0.3252032520325203,0.0,112089.96026831005,0.0,0.25244200385606386,-0.2637390326761269,6.704692353063702,44.952899549230885,-27.523187580111546,23.533640810347308,-0.001647442809019473,0.35780563418057254,0.00016314307969828948,0.034945895502776804,51.056828390458854
91,17,1,0.027449318854117485,0.06535514871909796,0.07799094843066955,0.006082588037115357,-0.0017140278553257797,0.0016320498052865564,0.31042572771714383,0.0003276053542079818,0.013304467506799266,-0.00018443263950642131,0.005548089553765132,0.30879367791185725,1.0,86399.175,0.35769510869944,0.2674203120120202,0.105,0.1275,0.03409608978153258,0.005896828961017675,-0.006988810874811581,0.037230657122302904,0.001386121829758484,0.0007771078210109973,-0.08165181372805841,0.03159780343931384,0.0006242393015247881,0.0013987276809138058,-5.224059517730759e-06,7.29267845103378e-05,0.11324961716737225,1.0912106854657933,1.0948231956576024,0.011933238897756212,0.0001424021905909219,-0.0002303176351940497,1.0726807220340722,1.1500110227679436,0.0002526403179376524,0.0037694476670646192,-2.0304479827649992e-05,0.0019092672337597109,0.07733030073387148,1.0,86399.1675,0.09726089931542248,0.0557777022944943,0.045,0.06,0.003346662137669658,131.73241852487135,455.46875,109.62861221956383,111.1590769688287,184.877493221863,1.0,0.8181818181818182,54.6875,130.34170166993707,79.36769911760791,32499.52769184011,1.6422512321643006,0.21975607076145476,0.0,21339.53115488635,0.0,1.0083141040817178,0.266270824665844,6.628520016456215,43.937277608560706,-27.523187580111546,23.533640810347308,0.005558664565324265,0.3540530824469291,-3.815495446960702e-05,0.03472695134498263,51.056828390458854
