,subjectID,Label,median_p,mean_p,std_p,var_p,slope_p,min_p,max_p,fdmean_p,fdstd_p,sdmean_p,sdstd_p,drange_p,peaks_p,rise_time_p,max_deriv_p,amp_p,decay_time_p,SCR_width_p,auc_p,median_t,mean_t,std_t,var_t,slope_t,min_t,max_t,fdmean_t,fdstd_t,sdmean_t,sdstd_t,drange_t,median_f,mean_f,std_f,var_f,slope_f,min_f,max_f,fdmean_f,fdstd_f,sdmean_f,sdstd_f,drange_f,peaks_f,rise_time_f,max_deriv_f,amp_f,decay_time_f,SCR_width_f,auc_f,bpm,ibi,sdnn,sdsd,rmssd,pnn20,pnn50,hr_mad,sd1,sd2,s,sd1/sd2,breathingrate,lf,hf,lf/hf,median_bvp,mean_bvp,std_bvp,var_bvp,min_bvp,max_bvp,fdmean_bvp,fdstd_bvp,sdmean_bvp,sdstd_bvp,drange_bvp
0,5,1,0.13420667992387125,0.15571473255562265,0.0924980348119883,0.008555886444079801,0.00020926059113651546,0.03508555958451097,0.418655966356659,-0.001264323920398716,0.016675924840993995,0.00020851228203727981,0.006284072746956972,0.38357040677214804,5.0,0.055499999999999994,0.14059879969111608,0.13440157725465837,0.046875,0.06375,0.007333445600359572,1.3078476206150604,1.3030774403976573,0.1061769118864509,0.011273536617743158,0.003049363290165984,1.1418790717591496,1.4598429585236037,0.00266011256380091,0.0009077776729664891,1.3485879215023126e-06,4.879719954748402e-05,0.3179638867644541,3.0147323009394382,2.9606892970040253,0.13878027971930998,0.019259966038969917,0.003045099974356047,2.7397551844011683,3.1923551451630465,0.0012412089935041116,0.01616551371570084,0.0002200045923240033,0.005883294049668496,0.45259996076187825,4.0,0.056249999999999994,0.12043003056382284,0.12148512105247689,0.056249999999999994,0.08062499999999999,0.010053022878248379,-1.0,-1.0,-1.0,-1.0,-1.0,-1.0,-1.0,-1.0,-1.0,-1.0,-1.0,-1.0,-1.0,-1.0,-1.0,-1.0,0.30876439495364755,0.015432957427478772,-5.639699036785757,-3805.957289732699,-105.97002831140173,-110.90594806632754,-0.0025496962984356275,-2.515749159258486,0.002591882943303237,-0.3547977963017619,37.670506204775705
1,5,1,0.12528471842884523,0.15047335207383616,0.09519382960931322,0.009061865195686959,-0.0014353970852307378,0.01958661536778384,0.418655966356659,-0.0002624572992656693,0.01620329477137696,2.3353546349086952e-05,0.006280499239957804,0.3990693509888752,5.0,0.056999999999999995,0.14257947807141544,0.13718485718175616,0.050624999999999996,0.06937499999999999,0.007810630007686803,1.4055312635959485,1.3822575569408002,0.09079428331984753,0.008243601883564744,0.0025694459432848912,1.199549011403064,1.5077355889487598,0.00259024976221774,0.0009530463671509743,-5.2559758066871486e-06,4.285061898068079e-05,0.3081865775456958,3.040264047593209,3.029883668664545,0.09037823047476679,0.008168224543750064,0.001067435240191175,2.7546171126744223,3.1923551451630465,0.00216370425949274,0.015525067549190847,-1.9697064781346955e-05,0.00585965751015879,0.4377380324886242,4.0,0.056249999999999994,0.12443899886952758,0.12317697143828499,0.06937499999999999,0.09187499999999998,0.010836697114006286,-1.0,-1.0,-1.0,-1.0,-1.0,-1.0,-1.0,-1.0,-1.0,-1.0,-1.0,-1.0,-1.0,-1.0,-1.0,-1.0,0.3090438264725916,0.015411385949721024,-5.662277306020741,-3807.8612209379253,-104.3994381205365,-106.93128282070018,-0.0024913290368157566,-2.4872738726249657,0.0025815608758240722,-0.3472195618397882,39.324301754074355
2,5,1,0.11290779644044119,0.12506526637070095,0.07446268439437595,0.005544691367216439,-0.0006409408054569509,0.013725631508302437,0.26534788559259453,-0.0007151264984158183,0.01410166834641034,-1.7728177022437494e-05,0.005188264924990235,0.2516222540842921,4.0,0.789375,0.1014598753665515,0.14006453606209934,0.05499999999999999,0.075,0.007990261644386055,1.4605002809126486,1.4574884378317534,0.07275062841880263,0.005292653935330692,0.002083121969400066,1.3097979672562363,1.5926332281414635,0.002383444770472956,0.000761047983888172,-1.1918233416712925e-05,4.377314014453809e-05,0.28283526088522715,3.0498869538947186,3.076376814201472,0.08424803506066149,0.007097731411582447,0.0013447029342215258,2.9701641686614164,3.318388123897427,0.0015242418051206296,0.01360668974508459,-6.872582362618211e-05,0.004846508331787518,0.3482239552360107,5.0,0.645,0.08483578579912425,0.1299906611212803,0.0775,0.09999999999999999,0.011130582297174854,-1.0,-1.0,-1.0,-1.0,-1.0,-1.0,-1.0,-1.0,-1.0,-1.0,-1.0,-1.0,-1.0,-1.0,-1.0,-1.0,0.3093396137375419,0.015408720607806209,-3.963226036307276,-3608.084969690047,-113.54032317349811,-114.76013614037836,-0.0026269394090342882,-2.4605402415445874,0.0025300425809260097,-0.3568757390092917,36.49390668954371
3,5,1,0.08534331742993989,0.10038864333814505,0.06800969326207507,0.004625318377601538,-0.0003076798775771263,0.013725631508302437,0.26534788559259453,-0.000281747937300087,0.012616999745921148,0.00015293074742210878,0.0045674071750287076,0.2516222540842921,3.0,1.0374999999999999,0.09532600384520046,0.15496193939438999,0.065,0.09749999999999999,0.016439748114740266,1.5089306116879113,1.5204730119199568,0.06911584756041264,0.004777000383994198,0.0019773571400530173,1.4067814237605434,1.617966875096989,0.0017425882260765488,0.000931446233949664,-2.5078548873841423e-05,6.015203626890853e-05,0.21118545133644573,3.0811143874651883,3.112091023284838,0.08770305348330071,0.007691825590294705,0.0015544603163970107,2.9701641686614164,3.318388123897427,0.0014385363022091072,0.012392099846049755,8.357029151874103e-05,0.004341233914657854,0.3482239552360107,4.0,0.795,0.07691860180518217,0.13613268638502063,0.10499999999999998,0.13999999999999999,0.026750702082546682,-1.0,-1.0,-1.0,-1.0,-1.0,-1.0,-1.0,-1.0,-1.0,-1.0,-1.0,-1.0,-1.0,-1.0,-1.0,-1.0,0.3096343848654455,0.01541062001261874,-3.33390053423161,-3502.31441770945,-112.88721493335703,-107.40325804608335,-0.002574304804857378,-2.394959987696424,0.002515207088455992,-0.34417599535817667,39.930737311456795
4,5,1,0.07099268179529783,0.09100935621375207,0.06471243548291335,0.004187699306130222,0.0001003149230950687,0.013725631508302437,0.26534788559259453,0.0006610843779993353,0.011091249982534307,-3.0414711749551444e-05,0.003979488674157405,0.2516222540842921,3.0,1.035,0.0714084671164457,0.13407986657169646,0.06375,0.0975,0.016427845121456976,1.5938286579933492,1.5637751949350307,0.05511108974951184,0.0030372322133787487,0.0014625434754122226,1.4611576033016935,1.617966875096989,0.0012714312143522004,0.0012209722851357625,-2.9127966480700187e-06,6.957401244080667e-05,0.15680927179529558,3.146178535947496,3.1438077789929593,0.08407742903264578,0.007069014072739588,0.00145609673562489,3.015296792389619,3.318388123897427,0.0017680979288590064,0.010820833986347974,-4.074297230567588e-05,0.0038016039722055246,0.3030913315078081,4.0,0.789375,0.058631967461288514,0.11356791515856157,0.09375,0.13124999999999998,0.028602154366945787,-1.0,-1.0,-1.0,-1.0,-1.0,-1.0,-1.0,-1.0,-1.0,-1.0,-1.0,-1.0,-1.0,-1.0,-1.0,-1.0,0.30991397610087823,0.015389078094488903,-3.592612825153637,-3525.4244604411288,-114.57980822957393,-112.9794892172572,-0.002624187511303236,-2.4055466830343546,0.002532690005513939,-0.34900977258306276,36.40874735839773
5,5,1,0.07594550528025999,0.10011135731798496,0.06993082086062505,0.004890319706240832,0.0001898318026544175,0.013725631508302437,0.26534788559259453,0.0017574456401794813,0.012379506480885562,5.6969821736657136e-05,0.004298163308870331,0.2516222540842921,3.0,1.035,0.0714084671164457,0.13407986657169646,0.085,0.11499999999999999,0.017557108004428317,1.6107560643788563,1.6007650261579935,0.03269769153275111,0.0010691390315709435,0.0007979851180888716,1.5101256344270628,1.642598225653006,0.0011153777064075296,0.0012053766767363718,-1.8418229531011465e-05,6.776493260184572e-05,0.13247259122594324,3.1766019488904176,3.1866516613018,0.07648943070272178,0.005850633009226478,0.0009252124477808892,3.015296792389619,3.343236316532076,0.002728374071405263,0.012007694776575123,6.388546252987052e-06,0.004068584823171081,0.3279395241424572,4.0,0.7837500000000001,0.05514012602875251,0.10883739070946907,0.0725,0.09999999999999998,0.019211181729101853,-1.0,-1.0,-1.0,-1.0,-1.0,-1.0,-1.0,-1.0,-1.0,-1.0,-1.0,-1.0,-1.0,-1.0,-1.0,-1.0,0.3101935290499718,0.01536761398301384,-4.5542504004688595,-3612.62596911489,-114.45450352423302,-121.40013990038045,-0.002665476379994861,-2.508686151593135,0.0025293067387253945,-0.37087722819406144,31.35744384143632
6,5,1,0.09243590481393382,0.10059779260947464,0.052647377069250025,0.0027717463122717933,0.0005211516926252643,0.027926244309768596,0.2282418388928966,-0.00030281022347607617,0.009796657355882652,0.00010296918708273707,0.003264638893844268,0.200315594583128,2.0,0.0525,0.08139370004963747,0.07927352936744164,0.09,0.10874999999999999,0.010800262519154336,1.6177948834991556,1.6226144879951199,0.013607210702543268,0.00018515618310340805,0.00033312711467098236,1.5950240878452349,1.6428149508451213,0.00038040977583205703,0.0007641168190824755,-1.1229540670197602e-05,7.763077521694715e-05,0.04779086299988644,3.205976637540004,3.20768451912821,0.055044164501587965,0.0030298600456778765,0.0007982795375241709,3.128675994784124,3.343236316532076,0.00012713850479612968,0.0093010531584153,5.426678996257039e-05,0.003065158471099176,0.21456032174795237,3.0,0.04499999999999999,0.05673368820482061,0.053663482984499,0.0375,0.04875,0.0010379123128593753,62.4390243902439,960.9375,156.44519058203738,101.5625,192.95451617544484,1.0,1.0,132.8125,116.00970628841796,71.81553246425881,26173.547193298782,1.6153846153846139,0.2603488674824264,0.0,0.0,-0.0059260398673440795,2.0576148765550784,-0.9474563704594126,45.823033473793025,2099.750396740356,-191.04926779084565,156.93302903473057,-0.008544076877796281,2.5124928482739204,0.0009765316569893767,0.22411926944662502,347.9822968255762
7,5,1,0.08951338539516585,0.09607947052311921,0.054863693828204496,0.003010024900474964,-0.00020492079584297478,0.013555846521857422,0.2282418388928966,0.0006694505577452789,0.010368630434292557,0.00010559566329039965,0.0033139029089606304,0.21468599237103916,2.0,0.06375,0.07572563846069613,0.08428985387377463,0.0825,0.105,0.011002081363537778,1.6368293352357863,1.6421122597573894,0.03629640290969048,0.0013174288641825877,0.0008689980674429,1.6065091094078037,1.7703420251726962,0.0013269733448853737,0.0021307205022318156,6.438721275369477e-05,0.00010284485494869721,0.16383291576489256,3.2147615616301977,3.2216351667225505,0.053871649224784025,0.002902154590198173,0.0006124512844258865,3.130003575341535,3.358119650904045,0.0018805103887401865,0.010390030408960544,0.00014619792426426767,0.0031227863751336956,0.22811607556251,3.0,0.049999999999999996,0.05573332427805925,0.05628588561815665,0.0375,0.05249999999999999,0.0014063423402862606,-1.0,-1.0,-1.0,-1.0,-1.0,-1.0,-1.0,-1.0,-1.0,-1.0,-1.0,-1.0,-1.0,-1.0,-1.0,-1.0,0.3107667839684099,0.015348498829869425,-7.6086670401534775,-3840.9604671194365,-107.96341432737535,-123.2337962172951,-0.002493830415943841,-2.582987329140618,0.0024716983759868177,-0.378895403882359,29.957213709255967
8,5,1,0.09717460442875364,0.11850008595879621,0.06854821578547222,0.004698857887371664,0.0002873220166189875,0.013555846521857422,0.27149790069576785,-0.0005833827981265665,0.011826692901314191,1.4392470919556873e-05,0.0036767576957529324,0.2579420541739104,2.0,0.045,0.04344131206109636,0.0362960823472357,0.0375,0.056249999999999994,0.0020423273830239086,1.6427640931723864,1.7110939587878582,0.10987814165503616,0.012073206013564193,0.0027526891624748005,1.6136038208016732,1.9865054213675726,0.0031371526416272676,0.003059881438788627,4.163382037708866e-05,0.00011663753036617398,0.3729016005658994,3.238245864855071,3.306961223195383,0.13517807575216584,0.018273112164058285,0.0028358668937306557,3.1545692112765336,3.5811130991527738,0.0024041747039589296,0.011930032126197965,1.7162591655060325e-05,0.0036241908632201106,0.4265438878762402,2.0,1.52625,0.05246662999755625,0.1411624942697336,0.045,0.06749999999999999,0.002383448227158543,72.28235294117647,830.078125,142.87212838184843,52.40784322265132,128.3724744152733,1.0,1.0,70.3125,67.43233008450025,161.72063706628478,34259.69425854643,0.4169679968355654,0.15064778547755348,0.0,26171.146934998706,0.0,1.8447536078313371,-0.37694183776305934,45.098974541687696,2033.917504711795,-190.20051622070153,122.07853763046312,0.05440198362143167,2.5910964850984706,0.003643337235021728,0.25014466829887394,312.27905385116463
9,5,1,0.09415700380463057,0.11238468192140942,0.06361602365912658,0.004046998466198553,-0.00015737593949452264,0.013555846521857422,0.27149790069576785,-0.0013466911145028008,0.010488493597439889,8.663478422661474e-05,0.00362775163344893,0.2579420541739104,4.0,0.04125,0.048572085203249946,0.03527971717683058,0.035625,0.05249999999999999,0.0018833580409117188,1.7739488618766575,1.8172581348786967,0.16993326184508895,0.02887731348131156,0.004743772457852819,1.6356225234252886,2.0921951343461367,0.0037483910886678073,0.00290701468938537,4.681829162280863e-06,0.00015040254090410674,0.4565726109208481,3.378699894723313,3.4004173497011454,0.16870247801671637,0.028460526088980673,0.004278470320765454,3.2038487312871275,3.6213753110307207,0.002262430024218191,0.010944891749424649,4.399277399183554e-05,0.003578666061647814,0.4175265797435932,4.0,1.524375,0.05645535697867299,0.10903816736077054,0.045,0.06749999999999999,0.002383448227158543,76.29139072847681,786.4583333333334,116.69456511670873,106.76289350559725,232.93830493555583,1.0,1.0,46.875,156.12788196649484,61.204842249970376,30020.375744986588,2.5509073502525106,0.14136273678258413,0.0,7519.83516097479,0.0,2.834439323809798,0.42120632387694257,46.71642576576023,2182.4244363277858,-190.20051622070153,122.15434666571473,-0.012967788548574182,2.6702422920588504,0.00025839284891455175,0.2514461226684405,312.35486288641624
10,5,1,0.0859984094647613,0.10080905950901624,0.06701544019649201,0.004491069224729597,-0.0002158794491107885,0.013555846521857422,0.27149790069576785,-5.702361599976222e-05,0.01134652626616358,-4.121306325730774e-05,0.003979161186926473,0.2579420541739104,4.0,0.046875,0.06985937898445863,0.06398088563862218,0.034999999999999996,0.049999999999999996,0.001781634402314107,1.9894710993780167,1.9274751791263778,0.1612545311326095,0.02600302381079773,0.00439999143982961,1.640165632930205,2.0929254120289618,0.0035259827696937753,0.003214885774667963,-1.447402183114103e-05,0.00015550295511070436,0.45275977909875675,3.5624008455874536,3.4925292154184424,0.15849850959561324,0.025121777544030704,0.003910457693689051,3.2063131885928744,3.6928119155139063,0.0032490559971186236,0.01122208557590331,-6.495185627812353e-05,0.003792503889787115,0.4864987269210319,5.0,1.2315,0.06294237415957404,0.10799597053034304,0.03,0.045,0.00046284950457895044,70.99159663865547,845.1704545454545,147.5496090758283,112.58500190105796,209.21502417198846,0.8571428571428571,0.8571428571428571,93.75,146.91502385628868,154.3248751557465,71228.20779130369,0.9519853731164227,0.1076194575979337,0.0,30229.398424472318,0.0,1.1838107275853524,0.042751415316433734,43.51916583392327,1893.9177948805145,-190.20051622070153,122.15434666571473,-0.00534719162231394,2.425153060554155,-0.0009214618790180632,0.22846942866479877,312.35486288641624
11,5,1,0.09207325135386807,0.10586639835477094,0.06350708360473628,0.0040331496679789644,-0.0010175595412721115,0.017500098848958864,0.27149790069576785,1.7480196968537067e-05,0.010899087412243467,-0.00034252178609091473,0.0038933333561020408,0.253997801846809,5.0,0.052500000000000005,0.06293847379370222,0.06265469935309571,0.043125,0.061875,0.005023679615421486,2.0668012683095496,2.0284757090537724,0.09236744525263249,0.008531744942498061,0.0022406757017329228,1.7775556985806185,2.156842924343535,0.003214692120873981,0.003177893019649704,-1.3528208471160856e-05,0.0001603753636602785,0.37928722576291674,3.591100589593526,3.591527910557237,0.055495319672873925,0.003079730505594468,0.001138657741164978,3.3992801385425806,3.7329561266079,0.003056507490326371,0.010875337030535203,-0.00037769392177408416,0.0038093391844197327,0.3336759880653193,4.0,0.789375,0.06070901559582431,0.07324130205457513,0.045,0.0675,0.006029763976871374,75.71830985915493,792.4107142857143,73.1516500364908,31.25,128.8470508005519,1.0,1.0,46.875,88.38834764831844,44.19417382415918,12271.846303085118,2.0000000000000018,0.18037518037518036,0.0,9732.159659864687,0.0,-2.431104304803795,-1.3455521212611814,43.06771012863821,1854.8276557244064,-190.20051622070153,122.15434666571473,-0.037854808934422536,2.216704343177662,0.002647074090797072,0.20435346919851288,312.35486288641624
12,5,1,0.09245590280155891,0.10310531403789105,0.05635141113039126,0.0031754815363863836,0.0007423969423959174,0.017500098848958864,0.2701142070473974,0.00031837502593442,0.010919039025349343,-0.00011864173606217495,0.004281925666214716,0.25261410819843855,4.0,0.0675,0.08287546286118229,0.10181419819794237,0.05249999999999999,0.075,0.01013071457147329,2.087056144806236,2.114417301543694,0.07314788065970801,0.005350612445006886,0.0018278912600142845,1.9924367773884608,2.2674150741666197,0.0023168254880590756,0.0024794874459179513,-4.66516791536975e-05,0.0001800289660641904,0.2749782967781589,3.617798720905536,3.669347965844898,0.1051690814552784,0.011060535694146981,0.002407965367638401,3.542696313900655,3.9080214841564502,0.002515194051683491,0.010882447889664276,-0.00018456966949494298,0.004040233822733748,0.36532517025579514,4.0,0.7893749999999999,0.07704027621661691,0.10436836557067242,0.045,0.0675,0.006029763976871374,61.44,976.5625,161.56330592964687,78.125,174.69281074217108,1.0,1.0,125.0,55.242717280199024,110.48543456039806,19174.759848570517,0.49999999999999994,0.17076502732240437,0.0,106512.93605535223,0.0,-1.394033530366191,0.5146332594850552,32.37860579009094,1048.3741129101104,-112.2462840009343,122.15434666571473,-0.056887493641657905,1.7116199800305407,-0.002032078192565193,0.16598027008456573,234.40063066664902
13,5,1,0.09751508352671814,0.10654824739026787,0.05551937401261146,0.003082400890752236,0.0005615493867890322,0.017500098848958864,0.2701142070473974,2.8426388400987992e-05,0.011282232312329383,-6.224395731794416e-05,0.004416350293674616,0.25261410819843855,6.0,0.056249999999999994,0.08487584845934078,0.0881973406943532,0.0495,0.0705,0.007655021298382925,2.1596787602517313,2.163297347045192,0.08050943160013779,0.006481768576577265,0.0020884957107659744,2.062378657502096,2.2674884379268905,0.0011221419253505728,0.0026843913802027343,-1.1960767969129705e-05,0.0001694945275450864,0.20510978042479433,3.739424761867297,3.7179359245152606,0.10688725691298724,0.01142488569038294,0.002471615345775595,3.557670313177129,3.9080214841564502,0.0010621929482746077,0.01150777211461518,-9.005117053501414e-05,0.00423709561729958,0.3503511709793212,5.0,0.6405000000000001,0.08346777799474196,0.09993859540933885,0.039375,0.061875,0.00480852633642522,62.56619144602851,958.984375,133.02774378013925,103.27581301876785,217.49079542304773,0.75,0.75,93.75,149.53847455117943,49.02304842973101,23030.487579005883,3.0503707815217957,0.3912873353332464,0.0,29554.693512794816,0.0,-2.132227000809802,-1.117662114069572,29.433344069979785,866.3217431418142,-112.2462840009343,117.02924901481909,-0.0010279525759503342,1.5480899188157857,0.00024137483420617358,0.16004605951393863,229.27553301575338
14,5,1,0.10394313430074975,0.11786868058810938,0.05111986546615371,0.0026132406452776553,0.00018771469224703025,0.03819708096290049,0.2701142070473974,-0.0004583571716773265,0.011246208529271664,4.25033381097144e-05,0.004466778475031704,0.23191712608449694,6.0,0.057499999999999996,0.08328533560557604,0.0859247020015576,0.05249999999999999,0.0735,0.007802055544232247,2.226321558813515,2.199998633455448,0.06601089507509296,0.0043574382686149314,0.0013970375865049755,2.062378657502096,2.2674884379268905,0.001428112691164507,0.002488124920729225,7.205662392183639e-06,0.0001633730456220932,0.20510978042479433,3.7900553428598958,3.7626917493518857,0.0891565674374481,0.007948893517228231,0.0014842401105488868,3.56833474487806,3.9080214841564502,0.0009004221618330829,0.011527626199330886,7.298171566368453e-05,0.004321584774658114,0.33968673927839044,5.0,0.642,0.08332205300945361,0.09960837009726742,0.046875,0.06937499999999999,0.005725382410378154,60.0,1000.0,122.23504509754966,23.4375,258.87564884032645,1.0,1.0,93.75,182.30096702465676,49.718445552179105,28474.518375127198,3.6666666666666674,0.20012007204322593,0.0,35603.58806558679,0.0,2.6853156786062793,0.44907020939092335,29.200525079687413,852.6706649294537,-112.2462840009343,117.02924901481909,0.004749488806189136,1.552503526852286,9.605039503519386e-05,0.1597009045567064,229.27553301575338
15,5,1,0.09710783800285215,0.10555187787284111,0.06267365665463746,0.0039279872384633836,-0.0012698808017208353,0.009703713554945195,0.2701142070473974,-0.00037660559696979225,0.011069667994865685,5.8648907797043935e-05,0.004334564977215851,0.2604104934924522,5.0,0.6375,0.09289143212055592,0.10545836851005246,0.058499999999999996,0.08249999999999999,0.011172932618811957,2.2342238963788117,2.234899771111077,0.02031774259235961,0.00041281066404938373,6.333060576663133e-06,2.162514596159927,2.2674884379268905,0.0005336243564006601,0.0021168545637665482,-5.7214491887723944e-05,0.00011347644213405484,0.10497384176696345,3.7900553428598958,3.7838366978698756,0.05549091559018188,0.0030792417130366904,-0.0011824625839138275,3.68909693897372,3.9080214841564502,0.00014329088758986233,0.010979320382227396,-1.1122313280829502e-06,0.0041966590398687074,0.2189245451827304,5.0,0.642,0.08332205300945361,0.09338606335687646,0.058499999999999996,0.08249999999999999,0.010149369172513606,67.96460176991151,882.8125,205.66322782950286,0.0,281.25,1.0,1.0,140.625,0.0,0.0,0.0,3.7062693382041507,0.2833663927458204,0.0,0.0,-0.13933777319751783,4.207844928113267,0.6976519650078252,21.587874906199332,466.03634296571084,-105.4980790164674,69.06966988332576,0.05752073266465666,1.2949233177937176,-0.001301109552312752,0.13899618359950147,174.56774889979317
16,5,1,0.08626937407182618,0.08796152160979734,0.04596726485204492,0.0021129894379780445,-0.0003045568923354531,0.009703713554945195,0.20207635347363526,5.263392262113128e-05,0.009499629119265078,0.0002246880436259811,0.0036631396406072484,0.19237263991869005,5.0,0.642,0.07806236583191296,0.07735053512303741,0.05062499999999999,0.073125,0.00648307264308269,2.229248917482339,2.2288281988615277,0.01856854024605122,0.0003447906868692239,-0.00044568437066780966,2.188501987154471,2.2674884379268905,-0.0006624271960645263,0.0007921923711651111,-6.60953619677033e-06,6.970922464401297e-05,0.07898645077241939,3.7581631918683005,3.761528675248823,0.044251745723305355,0.0019582169995600736,-0.0006917710042677101,3.68909693897372,3.8650044689168626,-0.00063418348885483,0.009141931748418404,0.0002424751477127655,0.0034718160851914563,0.17590752994314274,5.0,0.05399999999999999,0.06481580779353777,0.06550637466683903,0.048,0.0705,0.005573041063658879,73.00380228136882,821.875,220.88246308840365,0.0,281.25,1.0,1.0,234.375,0.0,0.0,0.0,3.357315599326669,0.24354603019970775,0.0,33685.16999238321,0.0,2.76266524715627,-0.21310360141997756,16.622758942420145,276.3161148578089,-73.23550424221183,33.329570909808744,0.0017999970568877996,1.0048719555881307,0.0003594938899179662,0.12062818815517132,106.56507515202057
17,5,1,0.09123993241779549,0.08977039838931108,0.04725533007927531,0.0022330662209012614,9.285768449270885e-05,0.009703713554945195,0.20207635347363526,-0.00020758205418290436,0.009217479590850402,1.801038655766165e-05,0.003506276156900855,0.19237263991869005,5.0,0.6495,0.07946643522143948,0.08410802550748575,0.05437499999999999,0.076875,0.0070446518348369295,2.2229350413907865,2.2103844835646735,0.023374819862382313,0.0005463822035988227,-0.000592631595631612,2.164483210098728,2.237707192858722,-0.0005266522891826627,0.0006624778451618261,-3.385158471480576e-07,4.897419903539599e-05,0.07322398275999431,3.7385671164649,3.7462179852488626,0.042213762063652904,0.0017820017075667008,-0.0004712462738919817,3.6641491652706364,3.8650044689168626,-0.000687596404438943,0.008764655992502734,1.7395688989681655e-05,0.003276610759407376,0.20085530364622617,4.0,0.06,0.0711886718981285,0.07671902450753865,0.054375,0.07875,0.0067491258599607995,73.49282296650718,816.40625,202.33470056984171,0.0,328.125,1.0,1.0,195.3125,0.0,0.0,0.0,3.5501474170681844,0.3063725490196078,0.0,0.0,-0.1588117442091712,2.1013777138165457,0.8037139022063509,14.643571148200154,214.43417597239997,-57.031759228535094,37.48271562289901,0.0007494633638956231,0.8889647516240008,-0.0004191269948306597,0.10443630374680735,94.5144748514341
18,5,1,0.09104857655539708,0.08660932957424156,0.043484728224246656,0.001890921588736594,0.0008128285045366989,0.009703713554945195,0.17512040498431525,0.00039349435327254906,0.00853740631154277,1.7183445975070253e-05,0.003470755782973112,0.16541669142937004,6.0,0.5437500000000001,0.07168476823309415,0.06944943891065383,0.052500000000000005,0.073125,0.005303710368110403,2.1880725405138612,2.19043615189169,0.033507783588098694,0.001122771560986856,-0.0009624534108967396,2.129968120851302,2.237707192858722,-0.0008711563486327456,0.0004592896231443676,-1.3288142061097334e-05,3.303166615154274e-05,0.10773907200742006,3.723567464559662,3.724683165175328,0.03128658212969058,0.0009788502213578737,-0.000139520227540724,3.6574761854260127,3.7936019088075015,-0.0004512419710910672,0.008143189910692863,-6.9614847015952995e-06,0.003208508693019366,0.13612572338148876,5.0,0.051000000000000004,0.061007595997641315,0.05849730298351448,0.046875,0.06937499999999999,0.004452072210152532,-1.0,-1.0,-1.0,-1.0,-1.0,-1.0,-1.0,-1.0,-1.0,-1.0,-1.0,-1.0,-1.0,-1.0,-1.0,-1.0,0.31377608818496666,0.015021707250210639,-4.955123995003348,-3787.7372244631224,-113.23705354106039,-115.76750398283843,-0.0025455514159987633,-2.435525992092148,0.0026610259239121287,-0.35252441328079764,37.72933357404693
19,5,1,0.09151481451758567,0.08873372906297852,0.04289718160479887,0.0018401681896350944,-0.0005691957523980749,0.004565127712945413,0.17512040498431525,-0.00068666892695429,0.00820290234856924,-8.282296911843512e-05,0.0033290286697673518,0.17055527727136982,5.0,0.05249999999999999,0.07179284812177315,0.06570477849824309,0.052500000000000005,0.073125,0.005303710368110403,2.1639830118890835,2.16224145152414,0.03244189314126381,0.00105247643058918,-0.0009317953295434504,2.1174203846033817,2.22309127459352,-0.0008866252061435746,0.0003566151187411933,8.420646740890196e-06,2.263376205758654e-05,0.1056708899901384,3.7178776822495294,3.7003345234745595,0.05975615634485786,0.003570798221111097,-0.001406158696253576,3.577775821610281,3.7936019088075015,-0.0014671580423197847,0.00784254504608203,-6.0655907417997426e-05,0.003071085097041041,0.2158260871972204,4.0,0.04875,0.060977118076773085,0.05637897272049963,0.047499999999999994,0.06999999999999999,0.004429257239402963,-1.0,-1.0,-1.0,-1.0,-1.0,-1.0,-1.0,-1.0,-1.0,-1.0,-1.0,-1.0,-1.0,-1.0,-1.0,-1.0,0.31407278607997485,0.015023117823198137,-5.342708337650713,-3774.199856857786,-111.25318516863092,-113.30316396001865,-0.002491197847634674,-2.4422722459317563,0.0026361266589611924,-0.35205174542672285,38.61840990811933
20,5,1,0.06587241378435252,0.07224555941719629,0.04780877603415966,0.0022856790658844386,-0.0009537849370022063,0.0025335761033907114,0.17512040498431525,-0.0008399568795352153,0.006768766901845502,-5.458092276439929e-05,0.0026024210586696153,0.17258682888092453,3.0,0.05499999999999999,0.06984004448229034,0.06460853662585664,0.06,0.07874999999999999,0.006061353698010272,2.129483446361168,2.1370159653203067,0.028702971088788873,0.0008238605493238499,-0.0008164958459043512,2.077894890047988,2.187643093873251,-0.0009294477273086595,0.0005607910138394846,-1.5907706795673104e-05,4.631462632284242e-05,0.10974820382526307,3.665057661799298,3.661427197626615,0.06541867515327553,0.0042796030588097885,-0.0016549160935536394,3.5693480762462033,3.7760703356318657,-0.0016271657211592535,0.006450246226074548,-8.369424689397923e-05,0.0024548461745944705,0.20672225938566235,2.0,0.04875,0.062437203124910745,0.05640563654777364,0.06,0.08249999999999999,0.006075888145742463,69.81818181818181,859.375,151.48999554426027,39.0625,199.18044974971815,1.0,1.0,78.125,138.10679320049755,193.3495104806966,83889.574337496,0.7142857142857142,0.23282887077997672,0.0,39005.17216580336,0.0,0.7347377665740953,-0.6225357378087492,15.479687268954779,239.62071794464066,-85.46210427937612,43.07261388915164,0.007952874604843783,0.9887930934788335,0.001247229470625013,0.12259661260611224,128.53471816852777
21,5,1,0.03948008291539132,0.049400966958951596,0.04458473348452713,0.0019877984598863146,-0.0008446467167682141,0.0025335761033907114,0.17512040498431525,-6.027239075154286e-05,0.005711624519415734,2.025361655303244e-05,0.00225718950591654,0.17258682888092453,2.0,0.04875,0.07111109657630597,0.06690041511431485,0.075,0.09749999999999999,0.00852122061708413,2.1172992079002775,2.1002484987587033,0.046521425037768474,0.002164242987544711,-0.001248844747595684,1.9844768211597108,2.1634828136794395,-0.0015072072182331735,0.0010845224951562666,-1.368573974610034e-05,5.1901553155937054e-05,0.1790059925197287,3.5959770315027724,3.605903409897622,0.07402414479204794,0.005479574012194079,-0.001952151506058286,3.4826873272195966,3.7616331214191696,-0.0013986291517222194,0.005383612462956335,-1.1306947736978528e-05,0.0020735375875405968,0.278945794199573,2.0,0.04875,0.062437203124910745,0.05640563654777364,0.06,0.08249999999999999,0.006075888145742463,74.08360128617363,809.8958333333334,211.25875742038616,220.9708691207961,333.6586953759785,1.0,1.0,125.0,218.74999999999997,136.21559198564606,93610.54130016975,1.6059101370939322,0.41177681696520485,0.0,123306.05778098127,0.0,1.81682888888558,-0.21010553549627095,16.404543097670015,269.1090342433129,-85.46210427937612,44.812533904130085,-0.002975233304275961,1.0744279949526985,0.00014638394788270894,0.13288329202440993,130.2746381835062
22,5,1,0.018874916606815395,0.02523277678359665,0.022043338062712643,0.00048590875294703595,-0.0003294273602319605,0.0016637934212336307,0.11028308324643649,-0.0009344846667364325,0.003156694132569156,5.283733378142593e-05,0.0010115321500243834,0.10861928982520286,1.0,0.06,0.041741711110216184,0.03640809748807003,0.06749999999999999,0.09,0.0032767287739263024,2.0764904305285743,2.0527385735008408,0.06735857904470606,0.004537178170921915,-0.0018733861089464464,1.9414878707358791,2.1289987718710335,-0.0015682075958246787,0.0011164894611815674,4.538645020545999e-06,6.500613344631734e-05,0.18751090113515434,3.5673420150266972,3.538769012198208,0.07458078836309802,0.005562293992861217,-0.0020606053703508312,3.411743064400849,3.6894744400996755,-0.002336181236379466,0.0031331564050898417,5.197326704842557e-05,0.0010352343792423154,0.27773137569882644,1.0,0.045,0.021374053654128033,0.0170438584516992,0.03,0.045,0.000766973630326464,85.09695290858726,705.078125,199.2474703562366,135.5418091632615,264.0116445111844,1.0,1.0,171.875,95.84253239363514,225.1437257967119,67790.36960365041,0.4256948846985585,0.17733640716439084,0.0,102745.25661307944,0.0,1.464605093840738,-0.3290271344020397,15.77547043264799,248.865467371351,-85.46210427937612,44.812533904130085,0.011720958800108212,1.0527876280160562,0.0005774821379347289,0.13117037246045837,130.2746381835062
23,5,1,0.027799809211149433,0.03758288637043215,0.03847122773528626,0.0014800353634602586,0.0005462721675083022,0.0016637934212336307,0.14556012167196145,0.0003491459103652911,0.005277015987909478,-2.976649386825466e-05,0.001890046250847899,0.14389632825072782,2.0,1.53,0.03438528342833702,0.07075379883519256,0.06375,0.105,0.007944334397902056,1.983176314334902,2.0083255873702637,0.06615199442086601,0.004376086365858288,-0.0018164137531775473,1.940178623514422,2.1171780311971737,-0.0013764215466976583,0.0013483627065762691,9.796856833960143e-06,6.584363646664912e-05,0.17699940768275169,3.500798699038344,3.508928237048119,0.061797362397249,0.0038189139992569243,-0.0011886925356769831,3.411743064400849,3.610067010550872,-0.0009515790169225675,0.005291701202197704,-1.7948725609463294e-05,0.001786315530280339,0.19832394615002302,2.0,1.5225,0.020935245686940718,0.05744674230183566,0.045,0.08249999999999999,0.006254464384281559,66.39769452449568,903.6458333333334,58.752677982700405,19.487798889447614,90.6609124246313,1.0,1.0,46.875,13.779954745128078,52.85881023485532,2288.310996715474,0.2606936229533505,0.18453589223103892,0.0,2667.1175180946757,0.0,0.18642842151370603,1.2901906651245827,26.362256290439284,694.9685567228055,-64.22216866686794,145.85216822154345,-0.007704101828343176,1.1456357801501176,0.0002602376401821965,0.13498792013420458,210.07433688841138
24,5,1,0.03716975089806116,0.04744383924060348,0.04175858466863272,0.0017437793935273674,0.0007473009260754702,0.0016637934212336307,0.14556012167196145,0.0007127774183466892,0.00650567374937049,0.000117900860729851,0.00221318557594191,0.14389632825072782,3.0,1.0450000000000002,0.037183539795630306,0.06742086118542816,0.06,0.09999999999999999,0.007118872508511683,1.9622804429587257,1.974675225842973,0.03656477318343059,0.0013369826379557247,-0.0006505065296988095,1.940178623514422,2.0750859710091607,-0.0007385879229649783,0.0017032790858974634,3.359443276010759e-05,3.708536382947023e-05,0.13490734749473865,3.490135097829836,3.4866949953138175,0.04127140600986218,0.001703328954030888,8.777764390053403e-05,3.411743064400849,3.5653359538071907,-3.0293748114044542e-05,0.006602977151594716,0.00013143202342574638,0.002050387635822377,0.15359288940634164,3.0,1.04,0.028512210969259044,0.06017868731419732,0.05249999999999999,0.08999999999999998,0.006467133129716595,79.01234567901234,759.375,157.99030824705673,97.0205000531102,229.816786176148,1.0,1.0,93.75,159.08879530522148,149.1439694091287,74540.9911856685,1.0666793698430566,0.3953089998682303,0.0,67292.61025586436,0.0,-2.1481259113141,0.7932863631858866,25.91964539716259,671.8280175146518,-64.22216866686794,145.85216822154345,-0.009579415023948913,1.0622709084711037,-0.001410850934814469,0.12225565318336096,210.07433688841138
25,2,1,0.022966631054474926,0.03684555457029725,0.03353973969357229,0.0011249141387125886,8.725746947290514e-05,0.002804594233497792,0.1261404740139917,-3.20212341842653e-05,0.006484224844586546,1.6692674216353993e-05,0.002246937155971501,0.1233358797804939,3.0,0.0525,0.0635669619995894,0.0723769413626852,0.07499999999999998,0.0975,0.01005135234415189,0.6250207677379191,0.6244768853127535,0.030818108887890387,0.0009497558354258684,0.0008496609864766419,0.5844435742119745,0.664286805326715,0.000483710002071915,0.0008267114216112697,-2.0702488391532993e-06,4.516330206532515e-05,0.07984323111474056,0.6113325434894075,0.6091292036559884,0.01593323301329886,0.0002538679142560767,0.00030810267854873026,0.5830820620907533,0.6448043745970196,0.0001623308406990871,0.0022392769578196752,2.2046478416201432e-05,0.0007444940526343479,0.06172231250626625,3.0,0.065,0.022989280106234133,0.029947095704752402,0.10125,0.13499999999999998,0.00557706162086799,66.71814671814671,899.3055555555555,157.8238635744932,133.17047345414073,248.13759413881647,1.0,0.8,46.875,172.30060940112776,149.60886504482278,80983.0286080091,1.1516737951959366,0.37082818294190356,0.0,149074.5404973816,0.0,0.2036397969416977,-0.14934323087129542,10.722009575355667,114.96148933401861,-39.333275846497,31.76585142226433,-0.005650573831069443,0.7131330161337439,-0.0003459491345281987,0.0749914442023221,71.09912726876134
26,2,1,0.022223066990246988,0.03680260114731245,0.033532830875555975,0.0011244507465286403,-0.00048043889708095387,0.002804594233497792,0.1261404740139917,0.00022862726527963842,0.006534715323868957,2.133491285618292e-05,0.0022615283417156628,0.1233358797804939,3.0,0.0525,0.0635669619995894,0.0723769413626852,0.07499999999999998,0.0975,0.01005135234415189,0.6396274234771331,0.6359175539691638,0.022765276284554072,0.00051825780431208,0.00032715451132726034,0.5886783290389459,0.664286805326715,0.00020757382534775334,0.0011089291088690288,-1.6383341634443095e-05,3.357586749495489e-05,0.07560847628776912,0.6116843525882627,0.6128613213570167,0.01226854686884834,0.00015051724227312842,-4.9445774298383574e-05,0.5830820620907533,0.6448043745970196,0.00017432619543637136,0.002255329272432665,2.6243839562824224e-06,0.0007293351954771197,0.06172231250626625,3.0,1.04,0.022989280106234133,0.023761573204036785,0.0675,0.09375,0.002901569436425897,65.36170212765957,917.96875,91.02484529477378,22.09708691207961,81.18988160479113,1.0,0.75,70.3125,50.32851065127002,118.35357349643061,18713.082260007744,0.4252386232578593,0.13625834582368168,0.0,6190.566914777056,0.0,0.5187730623189417,-0.03310959010268941,13.476368012066605,181.61249479665202,-69.37575367222519,40.16404842581768,-0.014823276161119388,0.8261323183117872,0.0017028401524858835,0.08423310766529536,109.53980209804287
27,2,1,0.017158343060938212,0.024552424013818807,0.025099652239550217,0.0006299925425463582,-0.00033609964896082076,0.002825927450961197,0.11188572480972471,-8.453482015509687e-05,0.004214133161254217,1.5131062559075548e-05,0.0014583496228679823,0.10905979735876352,3.0,0.0525,0.0375992830256194,0.04040399733241167,0.06375,0.09,0.004844623464591315,0.6396274234771331,0.6342971928748128,0.024744534762336682,0.0006122920006044884,-0.0005476520161464892,0.5876474219950341,0.664286805326715,-0.0003131662949157644,0.0009930439938985991,-1.570047506109414e-05,3.3760032351053574e-05,0.07663938333168097,0.6051811080077808,0.6083126721099129,0.014132362491043682,0.0001997236695782584,-0.0002884202762795211,0.5857070500722718,0.6448043745970196,-0.00012965691622555768,0.0015537739226462821,-9.523748891841766e-06,0.0005299002246156244,0.05909732452474781,2.0,0.06,0.017474064655575106,0.021768719011934223,0.075,0.105,0.0035139881418218364,70.78341013824885,847.65625,73.18357029373122,35.58763116853242,89.4181495489031,1.0,0.75,39.0625,62.68283803078599,71.33586862402213,14047.740559849162,0.8787001439788699,0.29511583296443855,0.0,3430.4699017168396,0.0,-0.4415759990502963,-0.5739191297260052,12.99680738916791,168.9170023111296,-69.37575367222519,40.16404842581768,0.018942778618327716,0.748685925388773,-0.0001643433591239119,0.07498297157664821,109.53980209804287
28,2,1,0.015483707514869504,0.017640538854271078,0.011598344568689325,0.00013452159673404517,-9.326069379268018e-05,0.002825927450961197,0.06947528522143019,-0.00037843568785298913,0.00233513265651078,7.884764464792499e-05,0.0008562542638464936,0.066649357770469,3.0,0.049999999999999996,0.021641494154911903,0.01801828472940263,0.056249999999999994,0.08249999999999999,0.0014621924718493987,0.6132249694843991,0.6192373326299271,0.03065213293759927,0.0009395532536242581,-0.0008638296108563314,0.5820377861486221,0.664286805326715,-0.0006595006976182385,0.0005349275233416042,-8.516806248985016e-06,3.4513527451287406e-05,0.08224901917809291,0.5994733005044938,0.6010799275401237,0.011846070096376081,0.00014032937672825562,-0.00031333011670629996,0.5856765233341821,0.6317014049226626,-0.00034393140957791657,0.0008896741694025336,2.24343321622876e-05,0.0003682625124496729,0.046024881588480504,0.0,0.0,0.0,0.0,0.0,0.0,0.0,-1.0,-1.0,-1.0,-1.0,-1.0,-1.0,-1.0,-1.0,-1.0,-1.0,-1.0,-1.0,-1.0,-1.0,-1.0,-1.0,0.1845910344913398,0.2729696646959452,2.3512820606420597,204.7176810494439,-49.48429856309667,41.0552912177518,-0.0138050342047859,1.056905044364906,0.001592725574143914,0.0769905567064665,90.74564059451222
29,2,1,0.01512612968076163,0.020202580852159455,0.01643638637549025,0.00027015479708440156,0.00026841749939796625,0.002825927450961197,0.07073069063838436,0.0003090822508699148,0.002702711520847725,-2.3941271758749693e-05,0.0011790668818864652,0.06790476318742317,3.0,0.049999999999999996,0.021641494154911903,0.01801828472940263,0.0725,0.09749999999999999,0.0018087637035672786,0.5874618266655922,0.5953711755320567,0.026244128487693804,0.0006887542800785814,-0.0007311161583221597,0.5415821022829161,0.6514274092476245,-0.0009285697713563509,0.0005522273423006589,-7.756076011970989e-06,3.4199050509040915e-05,0.1098453069647084,0.5923739682408593,0.5940960259182375,0.007509669776528593,5.639514015250701e-05,-0.00015291646348981222,0.5796338131896603,0.6158202799565884,-0.0001997608831622403,0.001038692974600979,6.954596247826794e-06,0.00043399688981665306,0.03618646676692805,0.0,0.0,0.0,0.0,0.0,0.0,0.0,-1.0,-1.0,-1.0,-1.0,-1.0,-1.0,-1.0,-1.0,-1.0,-1.0,-1.0,-1.0,-1.0,-1.0,-1.0,-1.0,0.1845184623817912,0.27302555264708395,2.3531758983209077,204.82955234929102,-49.48392726480961,41.05524120479822,-0.013805315759992144,1.0574459919663797,0.0015922382198601476,0.0768008985106819,90.7445738427341
30,2,1,0.023481841836945225,0.02646252594251043,0.017970702245841984,0.00032294613920871016,0.0003243179528984153,0.002825927450961197,0.07073069063838436,-1.1752430945499851e-05,0.0030867312928908306,7.010777086616016e-05,0.0013767259943521016,0.06790476318742317,3.0,1.03,0.020644822515664896,0.030739301386515077,0.0775,0.1125,0.0038680813418624505,0.5818083037705988,0.5649497140049606,0.034848254613417014,0.00121440084960154,-0.0009425133640613723,0.48733614604540276,0.6126119238768403,-0.0010539639664874023,0.0006815688688273487,3.092403396711546e-07,3.893542418444761e-05,0.1252757778314375,0.5893206916455096,0.5861356156575549,0.009987022323630806,9.974061489270007e-05,-0.00020527217705321104,0.557071912373468,0.6034472814524561,-0.0003505045846061141,0.0014553954997368547,2.772517664132538e-05,0.0007188472729097782,0.04637536907898809,1.0,0.08249999999999999,0.002976115856883954,0.01583404551234535,0.075,0.1275,0.0020188408028240326,69.1891891891892,867.1875,143.98474944561548,76.84498270666407,118.22457773766841,0.75,0.75,85.9375,54.337608372045146,157.49019531733953,26884.62070150517,0.34502216638030053,0.1923076923076923,0.0,2130.168352694908,0.0,-0.6043110865492312,-0.38655956739994507,14.482733543096371,209.74957088032878,-37.223663179253755,37.63329437412999,0.01999989919760475,0.9548071439066427,0.0005096646369240834,0.10596466546152919,74.85695755338375
31,2,1,0.03329445429745743,0.03529894101858755,0.017503701384147544,0.0003063795621454086,0.0003167654275781659,0.006861844805489462,0.07073069063838436,0.0002970605236244905,0.003278363744311579,7.527954615678906e-06,0.0015247452043218983,0.0638688458328949,4.0,0.785625,0.022401028313826614,0.027675493183943092,0.0775,0.1125,0.0038680813418624505,0.540552802537231,0.53503599456747,0.04355775818287509,0.0018972782979178222,-0.0012232791265385711,0.4757449153518955,0.5872762313361505,-0.0009000714681375863,0.0008054388008781246,8.1747622028031e-06,4.622397335078111e-05,0.11153131598425498,0.581577129136622,0.57923135537787,0.01225545587464532,0.0001501961986953785,-0.0002964102936296971,0.557071912373468,0.5957687802634742,-0.0002003948867835138,0.0014869531225677583,7.116394763358412e-06,0.0007674565484834118,0.03869686789000626,1.0,0.08249999999999999,0.002976115856883954,0.01583404551234535,0.075,0.1275,0.0020188408028240326,-1.0,-1.0,-1.0,-1.0,-1.0,-1.0,-1.0,-1.0,-1.0,-1.0,-1.0,-1.0,-1.0,-1.0,-1.0,-1.0,0.18338647363868033,0.2731529397984908,2.4975859210539326,200.4772954061084,-49.485523466486484,41.05545736756176,-0.014236807808516692,1.0568694389176767,0.0015791266288215668,0.07783448056544863,90.7491911277175
32,2,1,0.03991049448766816,0.05540393880404683,0.06623319175638397,0.00438683569023793,0.0008129538389670989,0.007615066758367345,0.33491714584776655,0.0023406704181380624,0.011030831927812743,-0.00012974337714670697,0.003702519027296015,0.32730207908939923,2.0,1.52625,0.0216185656714193,0.03972290559328197,0.16125,0.20625,0.006679582141149248,0.5038176769795589,0.5139313710200858,0.03450649613980137,0.0011906982758461268,-0.0007393224247950694,0.4757449153518955,0.5815788213925753,-0.00040752150457051643,0.0014785517701313305,2.8560079162658302e-05,5.160149120521773e-05,0.10583390604067983,0.5703554612548846,0.5788698308296214,0.024940776692411386,0.0006220423420207311,2.230999699329774e-05,0.5554404125978801,0.6748232615249009,0.0006399846241858469,0.003977202007604577,-3.62466724631592e-05,0.001319791928865374,0.11938284892702078,1.0,0.08249999999999999,0.002976115856883954,0.01583404551234535,0.075,0.1275,0.0020188408028240326,65.45454545454545,916.6666666666666,126.83120481131168,72.54368894366728,114.46490091581204,0.6666666666666666,0.6666666666666666,70.3125,51.29613438435471,124.45628276404712,20056.323987234387,0.41216187118175057,0.36376864314296103,0.0,58475.64499470812,0.0,0.08747761639736792,-0.27158728263519644,15.789018950531231,249.29311942023432,-39.75781337626841,37.63329437412999,0.008816230440352336,1.087166570270406,0.00018656606225590447,0.12449122086487488,77.39110775039839
33,2,1,0.04913550814957862,0.10984182082750191,0.10742481359841717,0.011540090576654675,0.0023662717238565737,0.00791305640116408,0.33969700077125464,0.0011094145854586915,0.013182791419589548,1.4510994715173887e-05,0.004403097581024081,0.33178394437009057,3.0,1.0425,0.11545487947596918,0.15587169576741386,0.14625,0.17625,0.007403391978945923,0.5038176769795589,0.5202299763638195,0.047520657838671924,0.0022582129214201315,0.0008755624535539956,0.4757449153518955,0.6553413994287153,0.0009760109224554184,0.002293482834205617,5.619302129359997e-05,2.8190672128584434e-05,0.17959648407681977,0.5703554612548846,0.5988802425427355,0.04852632384929713,0.0023548041063268634,0.0010653717974156655,0.5554404125978801,0.7084316218285736,0.0006679876689711317,0.004583200027705141,1.4550585977224593e-05,0.0015591489224868543,0.15299120923069343,2.0,3.0,0.05515641346563438,0.08895242829172412,0.045,0.08249999999999999,0.005072071624821297,60.95238095238095,984.375,194.15280708761333,23.4375,212.2355891750957,1.0,1.0,187.5,149.15533665653737,193.3495104806966,90600.7402844957,0.7714285714285714,0.20329335230737952,0.0,21849.67462334314,0.0,0.11521063764472686,0.3229510248463575,17.79685708086746,316.72812195682235,-56.919133895476435,54.801649575387415,0.0023713398951398473,1.1310217241242253,-0.00031151355932009417,0.1210191387170614,111.72078347086385
34,2,1,0.1029044056393998,0.13329187783076918,0.10096384624429454,0.01019369824844155,0.00143872033791559,0.00791305640116408,0.33969700077125464,0.0004071857798350367,0.014270662514527703,-5.607798476435239e-05,0.0049420022092952175,0.33178394437009057,3.0,1.04,0.1394203578792584,0.17415989094054038,0.0525,0.075,0.007589301992579662,0.5329749590842421,0.5714553454076191,0.09673660516919233,0.009357970779660208,0.002651853930098018,0.4757449153518955,0.7563174702883877,0.0022527862399140787,0.0018200203212925732,2.146706070159978e-05,7.913794803891495e-05,0.2805725549364922,0.6466072577359223,0.6234304135655423,0.0536408340342821,0.002877339075893397,0.0013425299705229115,0.5554404125978801,0.7084316218285736,0.0008660376039210123,0.004802529346430343,-1.211974466927071e-05,0.0016336412733253046,0.15299120923069343,3.0,2.02,0.0495534606956863,0.07199892789465956,0.045,0.08249999999999999,0.005072071624821297,61.68674698795181,972.65625,161.57904593708153,172.69689849560123,276.25777703985096,0.8,0.8,70.3125,186.0097023679141,120.42405542498558,70371.8096101014,1.5446224735703495,0.3857032656209822,0.0,110471.93350730931,0.0,0.14988428040625645,-0.07133079514804486,21.976440945836174,482.9639566458248,-91.11836933240882,54.801649575387415,-0.0017490420568467954,1.1660798436583777,-0.0006324493643120136,0.11678579393002907,145.92001890779625
35,2,1,0.1268600999291577,0.14345745356341,0.09501111332602138,0.009027111655450079,-0.000387020100218747,0.00791305640116408,0.33969700077125464,-6.435913551141199e-05,0.014683024734312232,-2.4922752925098218e-05,0.00508609290147141,0.33178394437009057,4.0,0.795,0.1221462424813312,0.14603034089192374,0.049999999999999996,0.06999999999999999,0.00629236847664125,0.657668107419368,0.6432423568931992,0.10713852948388781,0.0114786644999699,0.0030292906594431815,0.4798102641495977,0.767808229000045,0.002398806896220839,0.0016203310729726872,-6.420802394889804e-06,8.269726079016218e-05,0.28799796485044726,0.6656679114052172,0.6503385841330009,0.043873439426570154,0.0019248786871169207,0.0008693477522913006,0.5554404125978801,0.7084316218285736,0.000765384169535185,0.00498974983193733,-2.0865721620026237e-05,0.0016811958640844094,0.15299120923069343,4.0,1.5318749999999999,0.04175762676870021,0.06028668551097777,0.041249999999999995,0.07125,0.0032905345632086203,52.96551724137931,1132.8125,242.1875,0.0,562.5,1.0,1.0,195.3125,0.0,0.0,0.0,2.790691222552537,0.22075055187637968,0.0,82640.94140731824,0.0,0.29401214545871435,0.4484347453681471,23.334632845776436,544.5050900471886,-91.11836933240882,54.801649575387415,0.0038268866844890542,1.1814562964395683,-0.0010572684555839368,0.10843779270060494,145.92001890779625
36,2,1,0.11277218430186962,0.13000325821693695,0.08663563780456116,0.007505733737803106,-0.0021349410848739894,0.011003793504644789,0.33969700077125464,-0.001374588062818943,0.010751035585249168,0.00021641433662073094,0.0039615044391003796,0.32869320726660983,3.0,1.035,0.08817768029069951,0.08800769240495493,0.049999999999999996,0.06999999999999999,0.00629236847664125,0.7570155841539516,0.7115772468703195,0.07694741563076436,0.005920904772253601,0.002005218667897129,0.5344741268623718,0.7892055529692765,0.0021433784980717584,0.0017632558952997463,-9.824363479140711e-06,7.99229874704466e-05,0.2547314261069047,0.6666958923989112,0.6684061115450037,0.015442228861901493,0.0002384624322233435,-4.509640214219033e-05,0.6416213770618167,0.7084316218285736,0.00025309814629227896,0.0037175631329225984,6.927714940508667e-05,0.0013435182657820439,0.0668102447667569,3.0,1.0425,0.029966335330297984,0.0415738471729676,0.041249999999999995,0.07125,0.0032905345632086203,44.72545757071548,1341.517857142857,206.85594353934098,140.625,356.9893643373707,1.0,1.0,78.125,99.43689110435824,232.01941257683575,72480.5922275965,0.4285714285714288,0.21301523058898714,0.0,37010.892564801856,0.0,1.321156186974327,0.07483973792600303,26.056299021228245,678.9307186836601,-91.11836933240882,54.801649575387415,-0.0006561167411063292,1.4192724979444364,2.0064071756766233e-06,0.1318123431596661,145.92001890779625
37,2,1,0.08138511676332891,0.08690147202480195,0.045962777457725174,0.0021125769116283693,-0.0006903472077538651,0.011003793504644789,0.2050328789875707,-0.001102931695633151,0.008775999841960069,9.97984046591484e-07,0.0033126422695349245,0.1940290854829259,4.0,0.05437499999999999,0.0781548065956261,0.0788406811247936,0.06,0.08249999999999999,0.006973225684202367,0.7676919110647975,0.7731293021996424,0.04826083106506357,0.002329107815090605,0.0012837601704144043,0.6599948154100208,0.8949494979236404,0.001995563207385048,0.0016313679449424994,-1.9187673264151978e-06,8.788061962798577e-05,0.23495468251361962,0.6742605139708016,0.6744488255523216,0.016875304238338013,0.0002847758931364689,0.0001950472410972611,0.646604790213359,0.7086933454868358,0.0003023886587889065,0.0031073797746865215,1.03445258063585e-05,0.0011312974444666938,0.062088555273476786,4.0,0.07125,0.02753266113639352,0.03570983021074425,0.0375,0.06,0.0015089975015959434,47.524752475247524,1262.5,177.71334010141163,0.0,31.25,1.0,0.0,171.875,0.0,0.0,0.0,1.703317070733671,0.15847860538827258,0.0,6262.051800314075,0.0,1.21258785042051,-0.3250084236347156,25.830442200738585,667.2117442856968,-91.11836933240882,62.507959420547536,0.007424124912442792,1.448477901832029,-0.0004231945260147674,0.1383391566770591,153.62632875295634
38,2,1,0.06540602090380065,0.07106284164432358,0.034539654344504615,0.0011929877222378565,-9.997087667597027e-05,0.011003793504644789,0.1511264702494432,0.00010465764948349345,0.007549218013158939,-9.451449642519438e-05,0.0027203746364888983,0.14012267674479842,4.0,21599.82375,0.06181187161204231,0.061926188799094624,0.0525,0.075,0.0060702439180954845,0.7901893135144891,0.8316268746948915,0.07661161364131834,0.005869339344726635,0.0020443079875871514,0.7577136980195155,0.9820814298755476,0.001878050296186369,0.0015799082959461741,-5.251177617295738e-06,9.330007163477944e-05,0.2243677318560321,0.6859920905005215,0.6885545656035902,0.027851134239563726,0.000775685678430199,0.0006413021786092445,0.648334274441323,0.7511431950773176,0.0006795534553511839,0.0026771467486019673,-2.8536816207501657e-05,0.0009649305812177707,0.10280892063599467,3.0,0.06999999999999999,0.022709342900594304,0.03175253997657871,0.052484851849165556,-1913.4192456737708,12.615346460454205,50.97345132743363,1177.0833333333333,116.81073693753022,85.9375,185.20733736140153,1.0,1.0,93.75,60.766989008218914,116.00970628841799,22146.847625098944,0.5238095238095235,0.141622999575131,0.0,10421.183266226599,0.0,0.06003118379799814,-0.42231715391709285,22.45331367678706,504.15129506819295,-71.7729129683356,62.507959420547536,0.0012376810057354137,1.3822243756084531,0.0011401718020675278,0.13152385566015587,134.28087238888315
39,2,1,0.0527251680634653,0.06084699817209219,0.03052540708467776,0.0009318004776852951,-2.2336446654404347e-05,0.011003793504644789,0.13988398553208886,0.00030019474244276026,0.007214146070271118,2.557674322142648e-05,0.0026976638962978978,0.12888019202744408,6.0,14399.903750000003,0.04801119567611934,0.051558537876406636,0.052500000000000005,0.0765,0.0047807867394254215,0.8971415181294915,0.8848792508274101,0.08577801305206928,0.007357867523160967,0.00238079065130035,0.7672918631276422,0.9837561064808771,0.0016899906459599814,0.0017790517049385535,-3.7852273016757604e-06,9.548828735331598e-05,0.2164642433532349,0.7105318286685303,0.7026100822052809,0.029877385528011502,0.0008926581659894311,0.000774277497769903,0.648334274441323,0.7511431950773176,0.0006641268053075069,0.0026023874706786127,-2.0902613986811353e-06,0.0010272351868964664,0.10280892063599467,4.0,0.8025,0.02207730383140938,0.031736587190380416,0.06,0.09749999999999999,0.0030896510610990886,-1.0,-1.0,-1.0,-1.0,-1.0,-1.0,-1.0,-1.0,-1.0,-1.0,-1.0,-1.0,-1.0,-1.0,-1.0,-1.0,0.17678755720467831,0.2912202058982828,3.1454207726887518,213.36344416933707,-49.49205898027867,41.05632436834276,-0.015320394744127021,1.0389915907890068,0.0015828805754452757,0.07896564256180301,90.76802179031074
40,2,1,0.055562398568741796,0.059942507810371366,0.027838108920673836,0.0007749603082793003,-0.0005034554542671165,0.016607092213981156,0.13988398553208886,-0.0010459993389275893,0.005725781947644263,6.621865784019824e-06,0.002281102735851616,0.1232768933181077,5.0,0.0495,0.03968436309101029,0.04078871027215114,0.052500000000000005,0.076875,0.0032326985082662407,0.9697251116733013,0.9347852470733564,0.061113951196183486,0.0037349150308094966,0.001471275175861502,0.7911730740597017,0.9841611705747728,0.0016217798942532034,0.0018101631034862253,-7.2209129964746306e-06,9.215546587082545e-05,0.1929880965150711,0.7215805899826144,0.7188199332061538,0.017192365474038546,0.00029557743059291266,0.00032032357065890323,0.6761882395239346,0.7511431950773176,0.00021014905161328054,0.0021789983080093295,1.5868580783455951e-06,0.0009297897679387034,0.07495495555338305,4.0,0.79875,0.015658970272866002,0.02335640225159391,0.0675,0.10874999999999999,0.0024092724903770116,-1.0,-1.0,-1.0,-1.0,-1.0,-1.0,-1.0,-1.0,-1.0,-1.0,-1.0,-1.0,-1.0,-1.0,-1.0,-1.0,0.1791926622658851,0.2736803877586517,2.870630147018426,213.6431576867987,-49.48941038688645,41.05597160663456,-0.015606840744409494,1.0420593147923451,0.0015965585567644285,0.07849263336660715,90.7595789656043
41,2,1,0.04817174002912309,0.06521391041460482,0.05620866979370344,0.0031594145599775896,0.00041811074607466843,0.005990664343652941,0.25132906452548526,0.0008689485012088081,0.008822243413746553,-0.00014536880250086518,0.002973321876023976,0.2453384001818323,4.0,0.793125,0.0635919161383578,0.09265229228591317,0.057499999999999996,0.085,0.004015794039014023,0.9775985337242841,0.9771979963155903,0.024996946934200695,0.0006248473560312456,0.0005829133498770011,0.8993335383353426,1.0283911766262583,0.0010990736139508896,0.0013812769330097529,-2.5585611235237615e-05,7.720976650366445e-05,0.12905763829091577,0.7264261955573476,0.7344225927208432,0.02309995075669669,0.0005336077249618119,0.0003285694500846947,0.7123703118502246,0.8097760846054165,0.0006491761867047543,0.003109948399621397,-4.885088795625163e-05,0.0011289395767276789,0.09740577275519191,3.0,2.0225,0.02490280925484119,0.04339079756860098,0.0675,0.10874999999999999,0.0024092724903770116,77.57575757575758,773.4375,98.30513587592122,57.527921964516985,132.88907106430284,1.0,0.6666666666666666,62.5,90.36120610884099,97.57809372497498,27700.283973270038,0.9260398790278188,0.21556369907307607,0.0,20773.938573376916,0.0,-0.5473489966473832,-0.4434661530123584,18.93254026675033,358.4410809521226,-55.31554158453163,60.13927874777955,-0.003529453465659538,1.212424029767223,0.0005487076069810408,0.12720343121379202,115.45482033231119
42,2,1,0.05218435949635107,0.07100861532684277,0.06023505765402988,0.0036282621705843038,0.0006603751253864515,0.005990664343652941,0.25132906452548526,-0.000276914037150802,0.009065993317039545,3.4881803827320495e-05,0.0029342496850304142,0.2453384001818323,4.0,0.7875,0.05861444416288048,0.08334926855888788,0.0775,0.1075,0.013849979875207238,0.9847665552286486,0.9985113258394923,0.025862620906422468,0.0006688751601493204,0.000657260798453,0.9689325301435475,1.0394684831632328,0.0003642237379760401,0.0008974906735013055,-1.655039633960895e-05,6.25057894234892e-05,0.0705359530196853,0.7318666022878482,0.7432519653824774,0.025477994819902473,0.0006491282200429772,0.0004351290468823213,0.7180486338882331,0.8097760846054165,2.6076740652613193e-06,0.003192619792907421,1.9115921968208595e-05,0.0010798297838782362,0.09172745071718336,3.0,1.04,0.02232298636422551,0.03660895381218565,0.08749999999999998,0.12,0.00566590225463013,77.46397694524495,774.5535714285714,171.94745689795317,43.322408228161784,66.75002926029322,0.75,0.25,125.0,43.05743688486055,246.97572608931375,33408.14156190904,0.17433873995086344,0.18450184501845018,0.0,73442.67356225387,0.0,0.9137899432505773,0.41809327096094423,19.372583066562626,375.296974670869,-81.67886782896105,60.13927874777955,-0.008381482729329781,1.2613040995576719,-0.0010737707112036443,0.13850889854002607,141.8181465767406
43,2,1,0.061074935500935706,0.07628952972417195,0.059789011764565136,0.003574725927783308,0.000287015521117093,0.005990664343652941,0.25132906452548526,-0.0002954693605860169,0.009261331834441734,-4.5064141072870034e-05,0.002830851404630323,0.2453384001818323,3.0,1.0374999999999999,0.08265175674570682,0.11595232408410251,0.0775,0.10499999999999998,0.014893628601365732,1.007248279775451,1.0062617162478324,0.023428119371616946,0.0005488767772907332,0.0004507375517729352,0.9689325301435475,1.0394684831632328,0.00034752808082926244,0.0010560148509556383,1.936153079304277e-05,8.974438685821233e-05,0.0705359530196853,0.7440324575242652,0.7476860262236538,0.024147094217557848,0.0005830821591516157,0.00024395125297131147,0.7180486338882331,0.8097760846054165,5.354119023231555e-06,0.0031505131085128786,-1.5533317756930704e-05,0.0009599215444987223,0.09172745071718336,3.0,1.0375,0.0269713863315378,0.03908912617288285,0.08,0.1075,0.005690423357756925,71.11111111111111,843.75,140.10319857162435,43.88619673529353,68.10779599282303,0.75,0.3333333333333333,62.5,47.2711845329983,170.79641051698394,25364.429411596513,0.276769191986606,0.07905138339920949,0.0,14020.31655804426,0.0,0.6814139186623285,0.37334673721852063,13.868548442493958,192.3366359018016,-81.67886782896105,44.48096176825791,-0.00043325847693780897,1.01377253776854,-5.177515599016057e-05,0.1216204493160404,126.15982959721896
44,2,1,0.07277957054400636,0.12093712245784145,0.1212520433519993,0.014702058017035117,0.0013859246929168196,0.005990664343652941,0.4967949786145151,0.0016025121461697655,0.019710877964780864,-0.00020748016175700936,0.005539296752729092,0.4908043142708622,4.0,0.796875,0.1386077083830252,0.20359498220752426,0.0775,0.10499999999999998,0.014893628601365732,1.0244392069412784,1.0321598157032916,0.03689890115634357,0.0013615289065456128,0.0006733719350356438,0.9853719398825246,1.1594254938947417,0.0014818664415744522,0.0023695555949744796,4.211574811869706e-05,0.00011583564603963688,0.17405355401221712,0.7529057782456526,0.7707690808090785,0.04965110182218108,0.0024652319121565938,0.0006811952031706998,0.7180486338882331,0.9171816168361003,0.0009812398595883487,0.006640087114558408,-5.3660758180365296e-05,0.00181767498840513,0.1991329829478672,4.0,1.5281250000000002,0.04300776410571505,0.07421004946480714,0.08,0.1075,0.005690423357756925,69.81818181818181,859.375,127.32217992164601,43.88619673529353,68.10779599282303,0.75,0.3333333333333333,62.5,47.2711845329983,170.79641051698394,25364.429411596513,0.276769191986606,0.0776156473144986,0.0,14309.979708861672,0.0,0.7246562532149068,0.24012948428015696,22.05773960774386,486.5438766030322,-97.67534806077646,87.87504719457519,0.0007849821016929344,1.3748999177766017,0.00016533373511667387,0.14733999606822104,185.55039525535165
45,2,1,0.09994644675598935,0.13120304566207389,0.11292253983407119,0.012751500002577394,0.0011473817114764921,0.012848391988011368,0.4967949786145151,-0.0008246575040114772,0.019310214852034335,-7.157122017124523e-05,0.005397245999025261,0.48394658662650375,4.0,0.061875,0.1266406351006846,0.16921592387257325,0.06,0.088125,0.017961725335023788,1.0385644851953697,1.0916722656439286,0.09679694164872035,0.009369647912545772,0.002320421330527135,1.0024228871187049,1.3106097071521368,0.002362313672245826,0.002845625996223078,2.1697710806596605e-05,0.00012809925852801045,0.3081868200334319,0.7598728411703419,0.7937416096696134,0.05599059944510367,0.003134947226222043,0.0011400683818733016,0.7337381850224988,0.9171816168361003,0.0005037984003040526,0.006485574069043099,-1.2019178526086888e-05,0.0017870625680104471,0.18344343181360157,4.0,1.528125,0.038758359651198004,0.06585693837094908,0.06999999999999999,0.1025,0.010283614036882696,67.5,888.8888888888889,125.09641343508208,86.28466519067177,117.1502917120324,0.7142857142857143,0.42857142857142855,70.3125,82.38164656262886,132.49088836234498,34289.910592136795,0.6217910346961069,0.31267588018260273,13503.75765256409,16787.304918644077,0.8044029531843876,0.5133959259549751,0.6970781506958235,20.574307552899132,423.3021312812823,-97.67534806077646,87.87504719457519,0.005963527618044503,1.208993744101998,-0.0005716001775895684,0.1202402490639623,185.55039525535165
46,2,1,0.115078976270309,0.15299137468103333,0.11979903513036642,0.014351808818166768,0.0011915595193061547,0.012848391988011368,0.4967949786145151,0.001992596448791834,0.022260803562417483,-0.00018151068956461704,0.007183137630612919,0.48394658662650375,4.0,0.06562499999999999,0.14034065058687045,0.1894493434949635,0.058124999999999996,0.08625,0.01941231081221024,1.162564090603795,1.174994647168623,0.14518244981436731,0.021077943734101285,0.004097323477104764,1.0024228871187049,1.426229482022379,0.003352036095915332,0.0024458097426806637,4.89017175308785e-05,0.00011166105094842556,0.4238065949036742,0.8463893116464825,0.8283614967248246,0.07029947949673922,0.004942016817512458,0.0017402587563270563,0.7337381850224988,0.9799729476655102,0.0017479019326958856,0.007456208425300497,-6.259995882291596e-05,0.0023469896911220544,0.24623476264301147,4.0,1.531875,0.043913230027910255,0.07601592050339318,0.08749999999999998,0.1225,0.012181602323870971,65.36170212765957,917.96875,77.10928265360901,85.89803386703458,135.01543121683042,0.8888888888888888,0.5555555555555556,54.6875,94.67776530858319,64.63371690620234,19224.586310000846,1.4648355353906282,0.09083477155054955,0.0,26142.964569689644,0.0,-0.15522872324632336,-0.15932644902140047,18.00731292296646,324.26331870563484,-97.67534806077646,87.87504719457519,-0.001490638947963778,1.0012666533427763,0.0002992647002681679,0.09350054930601952,185.55039525535165
47,2,1,0.1370656542401077,0.1660276132957192,0.11647738996245438,0.013566982372465668,-0.0005590179205966201,0.012848391988011368,0.4967949786145151,0.00022347847455595962,0.02283993536047446,-1.2949521829764937e-05,0.007221750238747064,0.48394658662650375,5.0,0.058499999999999996,0.15862646340061057,0.19249793306622182,0.058124999999999996,0.084375,0.022634690998612497,1.31250316210206,1.2951144237364995,0.15789650625340443,0.024931306687031387,0.0045406549539942455,1.0130180766230787,1.542437849930565,0.004433830607397973,0.0009760463261684218,3.0918210713539358e-06,9.5290518321423e-05,0.5294197733074864,0.878196997210181,0.8720125289635061,0.05937457851481448,0.003525340573811869,0.0013120169066841592,0.7337381850224988,0.9799729476655102,0.0015430500604455245,0.007593508905514631,-6.743288416575603e-06,0.0023710879454098477,0.24623476264301147,4.0,1.5318749999999999,0.05975654031554656,0.09523159447809293,0.10499999999999998,0.1375,0.01577598639575817,60.15665796344647,997.3958333333334,140.74551163407978,65.46773484362778,208.46350100197395,1.0,1.0,78.125,146.6679983367575,61.40534438828954,28293.808453720263,2.3885217125291165,0.33433634236041454,0.0,31567.036319229363,0.0,0.1866773253812411,-0.05620815828514705,18.2886441341163,334.4745042643466,-97.67534806077646,87.87504719457519,0.0003815224452037654,1.0155546050527957,0.00018879819671479154,0.09423566774786256,185.55039525535165
48,2,1,0.12809596842623108,0.14045905686799015,0.07260692836950057,0.0052717660472537875,-0.000310292279487377,0.03340989273195687,0.3669328005189655,-0.0003891653376874247,0.015434570235200286,0.00014574039159590327,0.005721423125131989,0.3335229077870086,5.0,0.054000000000000006,0.11080680693414942,0.1135356423179484,0.04875,0.06937499999999999,0.009018404650603443,1.4283896495890005,1.4180933805083125,0.12718683623099042,0.01617649131044878,0.0036378691437253573,1.1657026873128484,1.5826193960892185,0.0035023217739905115,0.0014777337165177186,-4.827113408972701e-05,5.101986087060992e-05,0.4169167087763701,0.9123539030086156,0.9040648023371621,0.04451993862389087,0.0019820249350750102,0.0010960419000576877,0.824688378345652,0.9799729476655102,0.001043377382738254,0.005138345749514486,4.811953989057131e-05,0.0018851553298599869,0.15528456931985823,5.0,0.648,0.03711220438280627,0.04954923394454105,0.10124999999999999,0.1275,0.009522620070566583,63.54609929078014,944.1964285714286,108.20713967447163,67.20566614877052,228.84091431057516,1.0,1.0,109.375,157.12644813374035,53.55980156563314,26438.579975165194,2.9336637467036693,0.15137753557372086,0.0,6840.887530178117,0.0,0.13722022728070846,-0.6973427661068492,7.063039033799597,49.88652039297674,-27.403480971195243,18.018993875312205,-0.000903428189816922,0.44660750853828335,4.604406124129387e-05,0.04290547522529665,45.42247484650745
49,2,1,0.12969135766447507,0.14298420706855533,0.07252849028199754,0.0052603819025858105,-0.00015072664166003452,0.03340989273195687,0.3669328005189655,0.0006913242989293674,0.014900611139694049,9.351733243323386e-05,0.005893710099877814,0.3335229077870086,5.0,0.048,0.1121698898464766,0.10334592643029868,0.046875,0.06375,0.007886871478352726,1.543779836736356,1.504233242721501,0.08996756149612141,0.008094162121558387,0.0024613195529109206,1.3143966170519832,1.5953715145482006,0.002358448589470391,0.0015867155508128953,-2.8631471698783532e-05,4.713848038187756e-05,0.2809748974962174,0.9340886944060011,0.9332154935061975,0.03514157333241575,0.001234930176277554,0.0007591919940743487,0.8455387471088716,0.9950469793490105,0.001003456132959915,0.00518281813297095,3.162919336571456e-05,0.0020724834506713717,0.14950823224013898,5.0,0.056999999999999995,0.03695665178781917,0.044797445428773106,0.06375,0.0825,0.006797270239647605,-1.0,-1.0,-1.0,-1.0,-1.0,-1.0,-1.0,-1.0,-1.0,-1.0,-1.0,-1.0,-1.0,-1.0,-1.0,-1.0,0.17723912853066948,0.27418683160165047,2.964999855104912,220.20793492504572,-49.49109984980896,41.05619661603123,-0.016085463987208195,1.0332057420748724,0.0016044591229500739,0.07849117774650498,90.76409946009517
50,3,1,0.28138329133269757,0.34166671671872206,0.2115391209987838,0.04474879971293809,0.0028498471383995743,0.052564869802322764,0.8673998966320249,0.0046278869091170615,0.0303398388839367,-0.00011267615748418643,0.009707385796225888,0.8148350268297021,3.0,0.049999999999999996,0.10545374960598448,0.08469056020873612,0.03,0.045,0.004993694032850901,0.675118620334794,0.6905245758275773,0.10038138458246951,0.010076422370693646,0.0020564122126499698,0.4802757737380017,0.9467116507878574,0.0039794071978373514,0.0054889201764512854,-6.305243283926583e-05,0.0003404673514933652,0.4664358770498557,2.853751838660963,2.9293288699519975,0.43671477941254205,0.19071979855734528,0.008062852440002892,2.2998751695600363,4.193237929513354,0.014164176716418031,0.05176581020747584,-0.0002927785215822709,0.016042717740099716,1.8933627599533178,3.0,2.015,0.18814237081787452,0.40394586421374806,0.04875,0.09375,0.04764394413199385,58.18181818181818,1031.25,178.93378414134895,171.63809430504253,342.92040044544837,1.0,1.0,125.0,121.3664603930317,116.3453536650452,44360.61954214298,1.0431569166263581,0.13856172925038104,0.0,11906.194615849432,0.0,0.004118294153979468,-0.27039678162698155,5.01198851757762,25.120028900329917,-28.68654695238356,11.868987439464597,-0.0017367974381185395,0.3263454322155504,-1.7214488295911722e-05,0.03407890104054052,40.555534391848155
51,3,1,0.3581085497347236,0.39663264513597923,0.24191586483316713,0.05852328565797919,0.0031738635991425492,0.052564869802322764,0.8835884037380338,-5.123219240217823e-05,0.03504909498707905,-3.125763725501986e-05,0.010396662393834051,0.831023533935711,3.0,0.0375,0.11621705796381983,0.0807849906459399,0.01875,0.02625,0.0007267664621286406,0.7163364341756883,0.7926054464930598,0.17082738017666474,0.029181993818022747,0.0044483181912219226,0.5992596463072926,1.1134388294815993,0.00337802204540717,0.004531800930210002,4.0535684421267223e-05,0.0002082780166306434,0.5141791831743068,3.0852498969482776,3.187333721476107,0.5570087764353469,0.31025877702600224,0.012549026169529923,2.2998751695600363,4.274098678576875,0.005268403737804241,0.05916002719796562,-2.304292408904692e-06,0.017177229722194067,1.9742235090168387,2.0,1.515,0.12212120952069849,0.3587717529255705,0.0375,0.07875,0.04018195371518503,61.736334405144696,971.875,142.31621920919625,0.0,359.375,1.0,1.0,171.875,0.0,0.0,0.0,1.1741956501574817,0.20584602717167558,0.0,55450.1624744939,0.0,0.45174968519606373,0.012482123563251062,5.286111974500539,27.942979806957986,-28.68654695238356,11.868987439464597,-0.0006481670901174196,0.33268068770527454,8.47532197542396e-05,0.03459117517745119,40.555534391848155
52,3,1,0.35373034588851565,0.39987272620757747,0.23885825346917716,0.05705326525034569,-0.0029387878540739452,0.036856695449009685,0.8835884037380338,-0.0007240788545710884,0.03479935965773708,-0.00035367584988061355,0.010212842990921678,0.8467317082890241,3.0,0.0375,0.11621705796381983,0.0807849906459399,0.027499999999999997,0.04,0.004754127448463124,0.9503500308722785,0.9144133057074995,0.20068325443245288,0.04027376860960062,0.0056980600263501525,0.5992596463072926,1.1547233479781336,0.004601278846122945,0.0028237162394169494,6.004067346376355e-06,0.00017739501692949026,0.555463701670841,3.424633535023543,3.3935193891066215,0.4136054293089294,0.1710694511538238,0.004543693218079914,2.452581544517863,4.274098678576875,0.006364904931332116,0.057664743049165114,-0.0005971873133856147,0.016756984674999146,1.821517134059012,4.0,0.7799999999999999,0.16273613455578229,0.28522429751985245,0.035625,0.06749999999999999,0.027808261233477335,70.13698630136986,855.46875,160.12448872056027,102.36064586996639,180.3091601366017,1.0,0.8333333333333334,109.375,120.25781134394602,143.97297396005533,54393.141691861354,0.835280456020246,0.2923406743324888,0.0,399248.7777195641,0.0,0.10074777402394293,-0.0530238465921664,4.621338781528031,21.35677213365499,-28.68654695238356,10.163838654437178,0.0011866838996462692,0.3045847833405427,0.00021896180825046077,0.03258594977996193,38.85038560682074
53,3,1,0.2728825603874555,0.3235873778618076,0.23295062250252055,0.05426599252431183,-0.0027466929413269506,0.013642246170781422,0.8835884037380338,0.0009648158189136213,0.03384641312828156,0.0008066318284303711,0.009743690536225659,0.8699461575672524,3.0,0.05249999999999999,0.17468404773858678,0.18643505474004526,0.03,0.045,0.006590866113960614,1.115082941253862,1.039976399887282,0.1324790255856285,0.01755069222011761,0.003387376666710338,0.7200323081571703,1.1547233479781336,0.0034124610882552606,0.003524015222525926,-6.496863557276291e-05,7.728464454215392e-05,0.43469103982096324,3.4462339189549,3.4736338612243314,0.36992109724677996,0.13684161818826165,0.001079466984817987,2.838680564496201,4.274098678576875,0.007379304287873983,0.055247654691795066,0.0011625385096628684,0.01598439644418784,1.435418114080674,4.0,0.050624999999999996,0.2359790572142213,0.26470613796960696,0.03,0.049999999999999996,0.011159608451447466,75.62363238512035,793.4027777777778,152.0758020712608,101.26157341262281,173.28963291264714,1.0,0.8333333333333334,93.75,122.18787741487604,103.82430718359151,39854.46971479935,1.1768715894131843,0.3502872355331371,10579.319519195506,75271.2878527876,0.14054920303590515,-0.00024879144483531783,-0.04468781792899231,4.0506823548999735,16.408027540297994,-28.68654695238356,10.163838654437178,-0.00045105597012270245,0.27984589149249195,9.365152807607599e-05,0.030825977198364475,38.85038560682074
54,3,1,0.2498621616600017,0.29027772245625083,0.20364996206353528,0.04147330704847936,-0.0023615124462708814,0.013642246170781422,0.8835884037380338,-0.0054918207247993504,0.027809970733719772,9.416137857525611e-05,0.009070658173688595,0.8699461575672524,4.0,0.054375,0.18977616562390465,0.2064453977605927,0.0425,0.0625,0.011208828772137523,1.13402674140549,1.1180802449218803,0.05116816499423561,0.002618181108877319,0.0010795301724328015,0.9539884109566996,1.188233942131471,0.001998627814986169,0.002536379732651079,-2.6788398015802074e-05,0.0001195981779928537,0.23424553117477132,3.467794036845786,3.5478363521070504,0.27249605998408305,0.074254102706849,-0.0021106993502906985,3.138701283261559,4.274098678576875,-0.005718240352887719,0.04486330229358727,4.667395900279832e-05,0.014707552871746203,1.1353973953153162,5.0,0.058499999999999996,0.26559688066262765,0.30153244955979763,0.0375,0.0625,0.022045679606283636,82.15813953488372,730.2989130434783,125.18815588472627,91.52533428073681,145.97277559626582,0.8888888888888888,0.6666666666666666,93.75,102.68954135144766,119.74919990019184,38632.13474888209,0.8575384339689701,0.05957345406886691,34194.489908157855,42645.25577277182,0.8018357326863632,0.06910342808277814,0.07093465473804098,3.6968392398381393,13.666620365207033,-13.66194996207958,19.082662879456684,0.005689213654428213,0.18102346409780157,-0.0001084546502940728,0.019634481493979374,32.74461284153627
55,3,1,0.21004655336677985,0.23541413127052735,0.13033578601491855,0.016987417116126634,0.0012761316871765529,0.013642246170781422,0.5696927976852793,-0.0019332006278197438,0.025020213506510902,0.00014613920273124468,0.008930155968387081,0.5560505515144978,5.0,0.054000000000000006,0.18191148359968196,0.19365673655541743,0.0425,0.06,0.011079480531760869,1.1498648621829517,1.1702680446690186,0.05166742939311487,0.00266952326009251,0.0011353529379365456,1.1167270530261246,1.3054583117724075,0.0015986732334858811,0.0019518047960429066,-9.380468625118839e-07,0.00010531583897533054,0.18873125874628283,3.5080432655193556,3.543356077387742,0.23655250372810105,0.055957087020033255,0.003964133214537405,3.138701283261559,4.05557309562722,-0.0005024475397692814,0.041062174169016266,0.00027904449733611353,0.014479881951118365,0.916871812365661,5.0,0.058499999999999996,0.23095965539687846,0.2732622801341183,0.03375,0.056249999999999994,0.01807514506444626,80.25078369905957,747.65625,150.29877471119815,129.32617838885778,207.6812712226759,0.9333333333333333,0.7333333333333333,117.1875,145.59876969298577,140.73298323223466,64372.95887821031,1.0345745989958992,0.06691648822269806,42143.888123212324,79143.80367740894,0.5324976329794724,0.10905023798552867,0.03584296988445899,3.737551223784848,13.969289150415612,-13.66194996207958,19.082662879456684,-0.0007671179408638651,0.2009273809743215,-0.00015018381006900547,0.02386505545166807,32.74461284153627
56,3,1,0.23290738689080243,0.2418407532462711,0.13115464127622656,0.01720153992829567,-7.650511066429125e-05,0.013642246170781422,0.5696927976852793,0.0014447117738302785,0.02681500623669409,2.2076437591600437e-05,0.009761122097223839,0.5560505515144978,6.0,0.0575,0.19242485520722852,0.21154948121271147,0.0425,0.06,0.011079480531760869,1.1902577544075579,1.2212689882113503,0.08871075567255841,0.007869598171996355,0.0024077560688689948,1.125625481742568,1.386705047964478,0.0019543017289178843,0.0019168203551979477,2.882108690997476e-05,8.142774188200203e-05,0.2610795662219101,3.6308205540526437,3.6376663779857625,0.2411319885191871,0.058144635887217376,0.0038429825410335014,3.138701283261559,4.0720222987780215,0.0056193976237388235,0.04422235291113261,0.00010371564190445604,0.015902949218785368,0.9333210155164626,5.0,0.6525000000000001,0.30634550831132507,0.37547519992042655,0.1275,0.1575,0.048650646906181635,86.55737704918033,693.1818181818181,149.91011856006992,137.26584340142992,207.98070647227325,0.8235294117647058,0.6470588235294118,70.3125,146.5985443924771,120.54815734642887,55518.80467192881,1.2160994213390184,0.13123359580052493,64369.656298674934,121118.2216021211,0.5314613725929052,0.20524896999284387,-0.0028505275782776764,3.8594642045533214,14.895463946228402,-13.66194996207958,19.082662879456684,0.00013210408009675794,0.22448212893986985,-2.1980557338582203e-05,0.030216920075017785,32.74461284153627
57,3,1,0.2696747689999517,0.3115403434897426,0.17258312636333814,0.029784935505343942,0.0015712410083474112,0.05322892635696132,0.8348955456563901,-0.0023008003904304974,0.033694429495827544,-0.00026178024486771197,0.011740863819391658,0.7816666192994288,6.0,0.05250000000000001,0.20594134828355,0.21284877227265497,0.041249999999999995,0.058125,0.01680631529227297,1.3069686671597567,1.2958610603104226,0.11176545650996014,0.012491517268879792,0.0032187541389981874,1.125625481742568,1.4874036469777514,0.0030279598235770414,0.0009653277362759433,2.9729835466920282e-05,7.496698382309973e-05,0.36177816523518347,3.8148451895299065,3.875315037000822,0.38471194797959507,0.14800328291825465,0.007873676903675261,3.4152050457009127,4.940438812522212,0.0011554963565593415,0.05661397924747627,-0.000475368949808432,0.0194992695466849,1.525233766821299,5.0,1.2315,0.3386600240334232,0.3983345958284056,0.10000000000000002,0.12249999999999998,0.0538902982322464,88.8595041322314,675.2232142857143,169.44081601178564,146.09882296387119,213.91336697698105,0.7142857142857143,0.5714285714285714,78.125,145.58637374214578,159.71914124998497,73051.23592161617,0.9115148791983596,0.10585371017254154,0.0,221572.57679428568,0.0,0.20393578977672105,0.12903196021963914,3.9907333505417557,15.925952675126227,-13.66194996207958,19.082662879456684,0.0036773678395727277,0.22938286856310597,-9.82647892050975e-06,0.030712419521946793,32.74461284153627
58,3,1,0.2457934335259154,0.27587532646951185,0.1821550535286397,0.033180463526021595,-0.0005579425259782345,0.046416881274165114,0.8348955456563901,-0.0006536009173877807,0.03259681476015667,-4.897860671168967e-05,0.011542069906449858,0.788478664382225,5.0,0.6435,0.2428457092698538,0.2774904718509509,0.04499999999999999,0.0625,0.02220290148685515,1.3881707459246235,1.3929247054067517,0.10865645790606454,0.011806225844692375,0.0031334367630858257,1.1922815666836448,1.5717428126869957,0.0031876038831639484,0.000574416160281677,-1.7575858004438562e-05,3.8799211526468615e-05,0.37946124600335085,3.926667887330548,3.976288588563101,0.3309213339293861,0.10950892924960427,0.004229912366320837,3.496847061862247,4.940438812522212,0.004167095904362955,0.054249676299643404,-0.00010206317039879824,0.01914702076758554,1.4435917506599645,3.0,2.0124999999999997,0.482231287591721,0.5616699408888303,0.045,0.06375,0.04981875109984378,104.34782608695652,575.0,93.17532197422234,126.15433798402455,169.55105011102114,0.75,0.5,62.5,98.00718195542483,78.27134730278858,24099.641607019897,1.252146351541506,0.34806822137138876,0.0,10445.329782596447,0.0,0.03499080103370566,0.1020480947245071,2.9832099251699997,8.899541457632795,-7.780669607411508,10.400578223629495,-0.0037615049115823666,0.2065183042348459,0.00014931265433068626,0.029396489608693965,18.181247831041002
59,3,1,0.2099502225862316,0.24962238961271643,0.1899284348990392,0.036072810383198574,-0.0014110928154577223,0.04009552892853818,0.8348955456563901,-0.0007634190473273922,0.03219447003695279,0.0001266736780516333,0.010960104636334421,0.7948000167278519,4.0,0.793125,0.27440310293514814,0.31277126604522576,0.05249999999999999,0.075,0.02846121997912888,1.4891147798362172,1.4775622873536511,0.09548990965114519,0.009118322845183872,0.0027282947147137817,1.3084790225471061,1.5970156907252162,0.0024059897194513543,0.0010691180154187854,-2.806479840234873e-05,4.234389947281054e-05,0.2885366681781101,4.015452523988111,4.072358791022357,0.3141422452670923,0.09868535026144998,0.002159871562987072,3.496847061862247,4.940438812522212,0.0026760037008034033,0.05361283822788754,0.00013567645001726357,0.01825631210725076,1.4435917506599645,4.0,2.259375,0.46190333930785865,0.5619331973216467,0.05249999999999999,0.075,0.0515009971483823,93.27935222672065,643.2291666666666,146.2280743892339,153.0667476480022,209.79012442633754,0.8181818181818182,0.6363636363636364,78.125,145.45621004019114,121.38031358856965,55466.453146507156,1.1983509165516666,0.5185825410544511,0.0,125178.77309318545,0.0,0.11081352429223326,-0.07639835971810584,2.798975429765458,7.8342634564307305,-7.85883273533619,8.784920313776269,0.00045907937954762915,0.18849993190413325,-1.604609836356093e-05,0.025759584922711017,16.64375304911246
60,3,1,0.1337221518498038,0.22006782596766578,0.199583709371932,0.039833657046659816,-0.004241006464593423,0.03960137037879245,0.8348955456563901,-0.0006749643349710053,0.03033410553075178,0.00023102692473485204,0.010269473886346223,0.7952941752775977,4.0,1.520625,0.23099762676521463,0.2936760538044009,0.056249999999999994,0.080625,0.030339065780761915,1.5662081602405507,1.5359409257201833,0.0639154195550174,0.0040851808568938995,0.0016135813014414105,1.3896364438847693,1.5970156907252162,0.0014461072461541917,0.0018312770111326875,-3.71740388467684e-05,3.7498327421068345e-05,0.20737924684044695,4.015452523988111,4.11982048979216,0.25672477177111386,0.06590760844093049,-0.004324427756750469,3.8638113181039664,4.940438812522212,0.0012782382272963318,0.050352020336633475,0.00030849474606277626,0.017076622732147644,1.0766274944182452,5.0,1.2254999999999998,0.31129103101426236,0.35641998690281856,0.0435,0.06299999999999999,0.03137809069711171,78.9041095890411,760.4166666666666,167.15423474876263,217.4557134330747,403.4609791773549,1.0,1.0,109.375,284.9555158197394,46.46631739597781,41597.305068210764,6.132517741644952,0.2924831822170225,0.0,24478.080788564985,0.0,0.07131071360573903,0.05509965139790866,3.0107951463032743,9.064887413003355,-7.85883273533619,9.046186867083481,-0.0019762602651857823,0.17521506337683204,5.137702496333885e-06,0.01903948999376042,16.90501960241967
61,3,1,0.1337221518498038,0.16641370430608163,0.11776233476786195,0.013867967489977987,0.0006145235553923456,0.03960137037879245,0.47085860685977204,-0.0005934213030236619,0.01992959015458316,0.0002718994657947847,0.005535038804900614,0.4312572364809796,3.0,2.0175,0.14722639553460776,0.26113500976057574,0.0625,0.09749999999999999,0.027978499845872806,1.5662081602405507,1.5620007796366997,0.028246317407343888,0.0007978544470764184,5.558312633141351e-05,1.4908259126946828,1.5970156907252162,0.00031144535311323406,0.0016951096759027073,-3.30650598902855e-05,4.3040648359591995e-05,0.10618977803053342,4.014229535685431,4.074250624934452,0.184601956403348,0.0340778823079436,0.0010917175688102624,3.865066821799145,4.5415360473453275,-0.00039302151826278904,0.032803179887287474,0.0003206291433596446,0.009142435754804794,0.6764692255461826,4.0,1.5225,0.18321990547366074,0.32492597673000456,0.04687499999999999,0.07499999999999998,0.032834145056548455,58.986175115207374,1017.1875,168.06138433991907,121.59422786464825,294.9774885478551,1.0,1.0,148.4375,200.5120398504788,143.30774359747622,90273.4386908358,1.3991710065136356,0.0983671060397403,0.0,215241.84578037524,0.0,0.1813464162867235,-0.0562044483673897,3.217455726829252,10.352021354106352,-7.85883273533619,9.046186867083481,-0.0027857591888686565,0.19112729472484696,4.4326806063559306e-05,0.02173568470344111,16.90501960241967
62,3,1,0.15356156802956294,0.17698607368952785,0.11332196998077398,0.01284186888032344,0.0003477204923182798,0.03960137037879245,0.47085860685977204,0.0008707193015494006,0.02052935427699034,-0.0002804746923348381,0.005860702389810313,0.4312572364809796,5.0,17280.465000000004,0.13561073722184397,0.1727574048684327,0.050624999999999996,0.08062499999999999,0.017205208731132585,1.5616759738428774,1.5608783238094324,0.026891790586737588,0.0007231684009609484,-0.0007023696750732925,1.5247071424100227,1.5970156907252162,-0.00023733605025829201,0.0010489472232570302,-4.0241409871040934e-06,5.821654404148305e-05,0.07230854831519351,4.032697450179221,4.090002161097443,0.1787839452677173,0.031963699085490134,-0.000584608282106001,3.884017912561047,4.5415360473453275,0.0010387380100791322,0.03411514520465171,-0.00048698976340459205,0.009520865417594695,0.6575181347842807,6.0,14400.393750000001,0.18734054142277046,0.24449992459201755,0.041999999999999996,0.06749999999999999,0.021847290547644567,69.25851703406813,866.3194444444445,150.43179876690604,134.99131916534486,289.63204026833773,1.0,1.0,109.375,204.75309063601458,123.9408250940746,79725.0355565041,1.652022975323919,0.2566735112936345,0.0,24221.43422431055,0.0,0.1658006740525486,-0.01283728750236121,2.8032617722993103,7.85827656403467,-7.85883273533619,9.046186867083481,-5.3187771796894126e-05,0.16004181749298918,-0.00010908394775654074,0.017966112920380393,16.90501960241967
63,3,1,0.19771793408487165,0.2035715081861083,0.11436462153910953,0.013079266659783758,0.0016171068070295175,0.03960137037879245,0.47085860685977204,0.0013905864096152292,0.02077706697705815,-0.0002931675954017434,0.007004669189895561,0.4312572364809796,5.0,0.645,0.143243876816029,0.19623691382580732,0.05062499999999999,0.080625,0.01938284299881624,1.5529052834451467,1.5545289364886024,0.02209460302707656,0.0004881714829241007,-0.00019671934473969785,1.5247071424100227,1.5954596530205492,-0.00012171044104070476,0.0011265497903466398,8.98260673500989e-06,4.624097658414133e-05,0.07075251061052645,4.096641321153623,4.123186820530331,0.18413137524826823,0.03390436335081857,0.002328891667719361,3.884017912561047,4.5415360473453275,0.0020475658175287516,0.03476191437148133,-0.0004611157675910508,0.011244882473429854,0.6575181347842807,5.0,0.6435,0.1632911823533,0.2627016431508302,0.041249999999999995,0.06937499999999999,0.024827138608035326,69.97722095671982,857.421875,89.22596703515953,25.515518153991437,142.92107014596087,1.0,1.0,78.125,95.47032697824665,10.41666666666671,3124.259144486212,9.165151389911639,0.29171528588098017,0.0,7857.100152681135,0.0,0.013016331834212025,-0.0905773406843631,3.170669091048508,10.05314248493037,-10.65564913094824,9.046186867083481,0.002558838845848559,0.1875052267248212,9.39139382836515e-05,0.022356559317743656,19.70183599803172
64,3,1,0.2044085178650318,0.2233123570577009,0.09665416302461245,0.009342027229988361,-0.0010664108406007228,0.05038203569110938,0.47085860685977204,-0.0006666300518495728,0.020870484563975094,-0.0004450272116878162,0.006953874696020012,0.42047657116866266,6.0,14399.906250000002,0.13383690573217868,0.17459554898842725,0.05399999999999999,0.081,0.016672227910397564,1.551844799373812,1.5525805453332524,0.01990389694298351,0.0003961651135169084,0.0004009205241443013,1.5247071424100227,1.5826882167042495,-0.00012256417510730274,0.001243894772984512,-1.3820823688466544e-05,7.517406923279451e-05,0.05798107429422683,4.1271375380428275,4.152362082234029,0.16671405262748235,0.02779357534347895,-0.0011010379980195052,3.85018028368918,4.5415360473453275,-0.0013894629718309108,0.035186898349591586,-0.0007342108889166227,0.011285173527470577,0.6913557636561474,5.0,17279.880000000005,0.1867557631713815,0.2896874453749979,0.05437499999999999,0.084375,0.02943314930639651,74.08360128617363,809.8958333333334,149.16670303770505,0.0,187.5,1.0,1.0,117.1875,0.0,0.0,0.0,1.6816193306432772,0.20593080724876442,0.0,57047.90318549989,0.0,0.05387498692824738,-0.14780059864712125,3.4124620757227535,11.644897418246044,-10.928852593501636,8.35427918052351,0.0018883411369103851,0.21036653354478962,0.00013656582487688452,0.02404096856372611,19.283131774025147
65,3,1,0.19466074252912974,0.21695743985876487,0.1660124023289456,0.027560117727027697,0.0006966054639360278,0.03846526257348115,0.9091269065206634,0.005755443625315052,0.027207624695075167,-8.255172945411923e-06,0.008070561974286308,0.8706616439471823,4.0,0.0525,0.14654826634918242,0.13931335067948766,0.05499999999999999,0.075,0.009800942881993355,1.5451117555502758,1.539057236705872,0.03880178720970245,0.0015055786906670286,-0.0004222360631178268,1.4364647515429079,1.5826882167042495,-0.0007590016642673706,0.002045701873585422,-1.3057800740968555e-05,9.947768447054545e-05,0.14622346516134166,4.108420587532963,4.119946898178283,0.25543987121411643,0.06524952780588437,0.00044623032385550333,3.801774901767932,5.090418423884255,0.008225455302092973,0.04421631300333128,-3.476676841202009e-05,0.013195099728851212,1.2886435221163235,3.0,0.057499999999999996,0.19711094449212632,0.21549024043491904,0.056249999999999994,0.07874999999999999,0.014536511325594862,-1.0,-1.0,-1.0,-1.0,-1.0,-1.0,-1.0,-1.0,-1.0,-1.0,-1.0,-1.0,-1.0,-1.0,-1.0,-1.0,0.44338279788806495,0.19469618805199324,10.5619786204675,-59.904526486342434,-18.625752091407776,18.616600394248962,-8.725330588372094e-05,0.28278809756738654,-0.00023860378012248058,0.03523607441274154,38.35739815235138
66,3,1,0.24993545980746323,0.33499422542863644,0.27406947855347646,0.07511407907457449,0.003685111218093843,0.03846526257348115,1.048780496454829,0.002562378944316261,0.033905527136640926,-0.00023499521995518915,0.00987215631185575,1.010315233881348,3.0,0.045000000000000005,0.1371880639724178,0.1128580719520374,0.047499999999999994,0.06749999999999999,0.007477861751583136,1.5451117555502758,1.521877359171041,0.05437752901188603,0.0029569156614385065,-0.0012411148736453294,1.4301883439201917,1.5826882167042495,-4.9171264339392674e-05,0.0031123320092765164,5.07163750817811e-05,0.00018289717505303495,0.15249987278405785,4.1867478030457335,4.28551438419101,0.393748166456496,0.1550376185878525,0.0040148272831579835,3.801774901767932,5.289559810233921,0.004150291905979594,0.0553946911248162,-0.0003562008538010179,0.016169134482057618,1.4877849084659895,3.0,0.04999999999999999,0.20705327959311268,0.1972480458221515,0.04499999999999999,0.06499999999999999,0.0123555806295707,60.0,1000.0,236.34588001486296,89.30431353897004,461.8414511947435,1.0,1.0,171.875,300.0560566840432,52.85881023485532,49827.56379399095,5.676557140633199,0.40024014408645187,0.0,75452.14253418766,0.0,0.48501016751495646,0.08774350180101849,3.934103986721793,15.477174178340306,-12.655378133447917,9.08057755159656,0.0015946239990387889,0.215144610121471,2.9842014253258214e-05,0.02091025657148874,21.735955685044477
67,3,1,0.37999298717869967,0.410263653680092,0.2966705849053011,0.08801343594805348,0.0054147278124618255,0.03846526257348115,1.048780496454829,0.002019014074036673,0.03961255217007786,-0.000306871255481794,0.01260615097075491,1.010315233881348,4.0,0.7818750000000001,0.21359788713961225,0.2321323050735733,0.048749999999999995,0.075,0.018560054938392016,1.5437428054572502,1.5444243629526062,0.08633568879999504,0.007453851160569589,0.0007778623232141146,1.4301883439201917,1.7560461072987943,0.001481346001283156,0.004558755447109891,4.293176974212119e-05,0.00019323959992190523,0.3258577633786026,4.318364326992251,4.446456090559654,0.49333164584745254,0.24337611279455634,0.010174413561077745,3.801774901767932,5.384247570629766,0.005669383906249004,0.06499547825271962,-0.00035751038085683474,0.020713867153606368,1.582472668861834,4.0,0.7837500000000001,0.36785478356266843,0.4412139928685339,0.05249999999999999,0.08,0.03292995574580802,71.77570093457943,835.9375,34.053897996411514,15.625,49.41058844013093,1.0,0.5,15.625,11.048543456039804,33.14563036811944,1150.4855909142316,0.33333333333333304,0.2992220227408737,0.0,0.0,-0.46749225947168793,0.21126156615144914,0.0767222370487571,5.764516887332279,33.229654944339025,-27.63018306521337,21.674124826824517,-0.0031830901420587883,0.2867661641043729,2.36214089968484e-05,0.02167822131654958,49.30430789203788
68,3,1,0.3951346161830338,0.43936937381446944,0.2752902326206095,0.07578471217630929,-7.657918590456952e-05,0.03846526257348115,1.048780496454829,0.0007567670898524225,0.040608031827203454,-6.06653988886709e-05,0.012816452900304986,1.010315233881348,4.0,0.7856250000000001,0.22331212274068019,0.24621056025940335,0.043125,0.06937499999999999,0.01908421833662276,1.5437428054572502,1.6091824973124458,0.15557587006673837,0.024203851347022663,0.004025437533697762,1.4301883439201917,1.9030667741141185,0.002989635485254095,0.004406965637476062,7.300366361083685e-05,0.00017483678033561055,0.47287843019392684,4.644339223315921,4.601006728884264,0.44252532705657543,0.19582866508652907,0.006492354574452899,3.801774901767932,5.384247570629766,0.0062495306027572734,0.06585189786205972,-8.619775048209395e-06,0.02099793430479986,1.582472668861834,4.0,0.7875000000000001,0.3908696792229218,0.47785714339907526,0.0525,0.080625,0.04353447270144412,77.08029197080292,778.4090909090909,87.83877746443356,106.255627101892,147.76043895924434,0.7142857142857143,0.5714285714285714,46.875,101.3845084747836,55.53506832421754,17688.409469988484,1.8255943772841672,0.46739892498247254,0.0,2487.2041458460717,0.0,0.3268605087330596,0.15036840732183912,5.507049781804959,30.327597299278047,-27.63018306521337,21.674124826824517,0.000276380035899537,0.2665964416256676,-0.00012026093002279374,0.020102726586328216,49.30430789203788
69,3,1,0.3902656680652705,0.44322419963581694,0.23703222608452812,0.05618427620258685,-0.004838716816690651,0.11615028834705227,1.048780496454829,-0.004805798830562397,0.037460897742579956,-0.00018634210882303772,0.013578499952002929,0.9326302081077769,6.0,0.5412500000000001,0.23347905591159349,0.24611268312148535,0.0435,0.06899999999999999,0.016970361417922884,1.758810159466649,1.7359233292382954,0.2047774152394591,0.041933789792153855,0.00589214109336214,1.4301883439201917,2.0773773423944366,0.005370089581157663,0.0021004949183716327,5.380238498024261e-05,0.0001706437356493844,0.6471889984742449,4.763155412514873,4.815521120688825,0.2956399414551815,0.08740297498362315,0.0017260373267894541,4.224585170986247,5.440986249594213,0.0009201190543333349,0.06324836772464333,-9.348948368927042e-05,0.022197927359142,1.2164010786079666,6.0,0.54625,0.40376087983839365,0.4792471126747486,0.052500000000000005,0.0795,0.0389353156625098,77.10843373493977,778.125,92.12126858114797,114.34634583385493,151.22115771831224,0.6666666666666666,0.5,46.875,97.3693702908329,48.85849749816075,14945.565127704804,1.9928850717216247,0.25716857400025717,0.0,1608.9760994230119,0.0,0.14138000920491792,0.09605212555436211,5.478657313615287,30.015685960030268,-27.63018306521337,21.674124826824517,-0.0022909910095754225,0.27478741298427456,-0.0003550933383171592,0.0224023957914849,49.30430789203788
70,3,1,0.28586431493942355,0.3330162605122446,0.1816666967489669,0.0330027887076811,-0.0035943920766654523,0.07729880747796739,0.8111164123469403,-0.0037918563263505973,0.031813011331091004,-0.00018012907585584812,0.012120549967869801,0.733817604868973,5.0,17279.871000000003,0.23894393181976276,0.32616091329906094,0.06299999999999999,17279.908499999998,10420.180240837904,1.9057806117614169,1.9000518224636957,0.18014977691159245,0.03245394212129653,0.0051534194602624725,1.5422437732899648,2.1303244067738683,0.004879255525326931,0.00239796634391937,-7.490148269155839e-05,0.0001066544003978815,0.5880806334839035,4.8784352274650145,4.904639290052097,0.24005433315931288,0.057626082868562384,0.002567775102492288,4.563768438095363,5.440986249594213,0.001794502824443056,0.05363672387139844,-0.0004673833875420234,0.019734238033540925,0.8772178114988503,6.0,14399.901250000003,0.36744900824723575,0.34764660299205435,0.0465,0.06299999999999999,0.0215567942363808,77.03703703703704,778.8461538461538,90.45619097224413,80.35025323198704,112.06997287161465,0.6666666666666666,0.5555555555555556,31.25,74.93486755176124,80.48143740624488,18946.5238567241,0.931082619381084,0.39525691699604737,0.0,17243.996334844276,0.0,0.15724700870229102,-0.036139125914512384,5.205309326856998,27.095245188264457,-27.63018306521337,21.674124826824517,-0.0009164805997793272,0.2620322509815272,-1.156060023553613e-05,0.021977935485283075,49.30430789203788
71,3,1,0.19533831765632667,0.21099300852932615,0.10820244630088667,0.011707769385496265,-0.0017487487976289864,0.041208970432229985,0.4960793532981621,-0.003126992865469547,0.021604037780122827,0.00033213446435309985,0.008145310818973772,0.4548703828659321,4.0,0.056249999999999994,0.1854608634850429,0.18812004206297483,0.06375,0.08625,0.018799815163584824,2.067517455693703,2.0098105527440913,0.11767133210646787,0.013846542399710655,0.002994928233650981,1.7615742116345037,2.1303244067738683,0.00253222023171372,0.003242312252408057,-6.139915429324987e-05,0.00010228934452151755,0.3687501951393646,4.835982216552175,4.8842716718960295,0.21038973722121243,0.044263841528010814,0.0020367104604067723,4.563768438095363,5.440986249594213,-0.0009403547246875643,0.03660457078861117,0.0003606604893203987,0.01323077659522627,0.8772178114988503,5.0,0.055499999999999994,0.26037937268981326,0.28667081380140935,0.046875,0.06749999999999999,0.014124023540281168,82.05128205128206,731.25,131.06385609694232,67.95827265989526,149.18943320210943,1.0,1.0,62.5,69.7070771579384,143.6900728045241,31466.86743506116,0.4851210372255004,0.13683634373289547,0.0,13438.91090614448,0.0,0.2523959506710258,0.053941313411531674,2.504709380739669,6.273569081965297,-9.634296492814272,6.225610129102662,0.0005299232186203142,0.14375136047809384,8.551446144059588e-06,0.016193964432546656,15.859906621916934
72,3,1,0.13311451002609598,0.16078224082441395,0.11427718788045735,0.013059275669865348,-0.0022929021748113727,0.02650131973579818,0.4960793532981621,-0.0009188453231499671,0.019399188553779072,-6.592693210382994e-05,0.007567533044597939,0.46957803356236394,4.0,21599.827500000003,0.1671230032523301,0.19695924449075344,0.07125,0.0975,0.02189764694313591,2.067517455693703,2.0600644339210508,0.057047518051474566,0.0032544193158333162,0.00034158749682997014,1.9084944494087153,2.1303244067738683,0.0007954457199098505,0.003368737229812254,-6.696222565335993e-05,9.399518597264338e-05,0.22182995736515299,4.828495325460114,4.884439892426921,0.20852508295558325,0.04348271022163287,-0.0032039308626599667,4.570248003268137,5.440986249594213,-0.0002119378094758928,0.03375186781247503,-0.0002318385684352812,0.012305116320161872,0.8707382463260762,5.0,17279.8695,0.2282359815004149,0.25582700686067544,0.043125000000000004,0.06375,0.011727142777144046,65.08474576271186,921.875,156.59683727471779,82.55660147993416,143.34748900544673,1.0,0.8333333333333334,156.25,98.49466483894501,197.8909659848139,61233.42445630225,0.49772188613452656,0.12058362474375978,0.0,65074.54906900435,0.0,0.1188206456686363,-0.010337150696238352,2.3656558777619328,5.5963277319895814,-9.634296492814272,5.807163567167501,0.0006700571435271608,0.13675329444378445,-5.3409178395365364e-05,0.01486384577670079,15.441460059981772
73,3,1,0.09560238112193975,0.11397153127196433,0.08422587780559232,0.007093998492122569,-0.0013149019578339025,0.006006996794475839,0.3269771861008442,-0.0014752297179806602,0.010578438880771783,-3.668067151146176e-06,0.003305548575142051,0.32097018930636834,3.0,0.06249999999999999,0.0855969352203841,0.12143638941588493,0.056249999999999994,0.07874999999999999,0.007665740834424927,2.062742742863898,2.0512599469644943,0.06421994259114998,0.004124201026410599,-0.0017635317712694945,1.9210465475956635,2.1303244067738683,-0.00133209975204192,0.001896491388993765,-5.599927692000184e-05,9.319333903081063e-05,0.20927785917820474,4.770661874024235,4.793017888191517,0.19973303014377716,0.039893283330414996,-0.005071478859347087,4.472740896085009,5.228260519752007,-0.004654987509756914,0.016960586773376023,-6.89345605652573e-05,0.005561454319829367,0.7555196236669985,4.0,0.0525,0.10520688048706894,0.13463893734414767,0.0375,0.05499999999999999,0.006207099289451424,65.73466476462197,912.7604166666666,170.74180570208844,132.4529830717654,206.32988509756652,1.0,0.875,148.4375,145.36683082096027,195.77581764959425,89407.55973464003,0.7425167856080286,0.09134088417975886,0.0,76119.97773163253,0.0,0.29478754642316163,-0.06509012239651318,2.3675069795065897,5.605089298012416,-9.634296492814272,4.528266055499594,0.0028532675855346907,0.11373367926567675,0.00026687219272008916,0.010692804047980838,14.162562548313865
74,3,1,0.07256040236631313,0.08183308284911786,0.05257314432942206,0.002763935504682243,-8.356379671574587e-05,0.006006996794475839,0.19602145400266588,0.0005847902618122232,0.01108398045654528,0.0004674133671091132,0.0035586820824038213,0.19001445720819005,3.0,0.06249999999999999,0.0855969352203841,0.12143638941588493,0.06999999999999999,0.09749999999999999,0.013493666261002903,2.0011471467206547,1.9985781115754875,0.07326588223475647,0.005367889499637204,-0.0020955284114737866,1.9028761428061913,2.123140153409059,-0.0017735853432617188,0.0010306193436561324,1.9905006747392152e-05,6.183873771644301e-05,0.2202640106028677,4.644833828188628,4.653147089468218,0.14885397191253186,0.022157504954136827,-0.003584964879673357,4.40115006566333,4.993926749206724,-0.001960625420270793,0.01878377685164154,0.000843639362162953,0.0057676009197768375,0.5927766835433941,3.0,0.06,0.11799428341682254,0.17046048384171986,0.05249999999999999,0.0825,0.016424568037144663,62.84779050736498,954.6875,154.90830200880131,161.22715304337612,261.3784323463459,1.0,0.8333333333333334,132.8125,184.7398843503797,84.4850426953559,49033.21478323514,2.186657879981574,0.3143994969608049,0.0,52955.526145931886,0.0,0.2026008589934251,-0.026014232152874482,2.1298615310911138,4.536310141621783,-6.11229624212988,5.191682597810343,-0.0015562419052728897,0.10578999597194715,8.424196876956341e-05,0.009603913476452864,11.303978839940223
75,4,1,0.2538104872619088,0.32111664031327714,0.18786924736003546,0.03529485410362619,0.0018107271419832427,0.08205423823053531,0.797274933914907,-0.0019702094597173077,0.037078544408722026,0.00025414655387697674,0.011004497333158454,0.7152206956843716,3.0,0.0725,0.3502902482221432,0.486458103602907,0.075,0.105,0.052550133033312,2.4412580124648784,2.4784570772021532,0.15407389112346742,0.023738763925926096,0.004346692583492097,2.3000758037119935,2.7711134547264225,0.00383160666577597,0.0022805411368517063,4.128888889016561e-05,0.00012703195157126078,0.47103765101442896,2.3529287851885012,2.4051373348879936,0.19371335624712302,0.037524864388524794,0.00424820313817706,2.1394693017454385,2.8856499269626883,0.0013463031231633596,0.02599493686591441,0.00021486193009099725,0.007578616258602338,0.7461806252172498,3.0,1.0475,0.25084549458817545,0.37341522806910427,0.075,0.10875,0.045594622140628725,-1.0,-1.0,-1.0,-1.0,-1.0,-1.0,-1.0,-1.0,-1.0,-1.0,-1.0,-1.0,-1.0,-1.0,-1.0,-1.0,41.18653612255242,5.0884285046294355,52.687546108232034,568.4951737771967,-752.2706444263458,-104.71494457125664,-0.06743320958524769,-0.8120873611508842,-0.0006908908392440619,-0.13937478753351223,696.9319170713425
76,4,1,0.33080513941135836,0.35793691184796217,0.18144621159328364,0.03292272770155466,0.00037138708109479964,0.08205423823053531,0.797274933914907,0.0024401376677042614,0.039891075244761834,-0.00033995292109939855,0.012554651977789155,0.7152206956843716,5.0,17279.886000000002,0.29642397760668937,0.327438776046442,0.06,0.08437499999999999,0.03105983532398225,2.609556077328604,2.595079906922965,0.15821771438156054,0.02503284514412507,0.004466531315117634,2.33447168079707,2.7822011541006195,0.003587153106607969,0.0025579724978011314,-3.1698990582889235e-05,0.0001262057277236077,0.4477294733035495,2.509055521467979,2.511076040294183,0.17188047489887176,0.02954289765146169,0.0033354405999320973,2.1394693017454385,2.8856499269626883,0.004137166118511964,0.02775847980614903,-0.00028029917231950363,0.008608393892705875,0.7461806252172498,4.0,0.796875,0.20858274769094676,0.28383868313103167,0.065,0.09499999999999999,0.03282513650265135,71.77570093457943,835.9375,115.61444208553705,0.0,62.5,1.0,1.0,31.25,44.194173824159215,0.0,0.0,2.0019542414137184,0.2991325157044571,0.0,0.0,-0.0423163402849871,1.8373129177224472,-1.827399464384848,32.25631011712797,1040.4695423723322,-87.44046446657391,80.01232262557683,-0.011495091260451033,1.1803402204695483,0.00026000912897290084,0.09220255225399364,167.45278709215074
77,4,1,0.24719194883596504,0.31306889089983836,0.19159701099166462,0.03670941462094006,-0.001635649465311683,0.05978837396091619,0.797274933914907,-0.002338613377249818,0.03570831577626387,-0.0002004745012994626,0.011060475140691165,0.7374865599539908,3.0,0.06499999999999999,0.28647589503623466,0.3933006360810585,0.057499999999999996,0.085,0.0378911697545583,2.7620580933539656,2.694559126989458,0.11246289535376477,0.012647902831351846,0.0029065705411391715,2.443400327535464,2.8278115945747846,0.0032399919083500152,0.0027527699000179356,8.494585312083617e-07,0.0001580051457793783,0.3844112670393205,2.534215384270092,2.548700077404398,0.14372870178845953,0.020657939717795927,0.0008750934252841842,2.3420044437290883,2.8856499269626883,0.0005942745629440378,0.024888782730540487,-0.0001349190732823478,0.0075636024386750295,0.5436454832336,3.0,1.04,0.20489900141670248,0.2923857587978754,0.06,0.09000000000000001,0.030985746734689106,83.47826086956522,718.75,93.75,0.0,62.5,1.0,1.0,31.25,44.194173824159215,0.0,0.0,1.8892772741683408,0.34794711203897005,0.0,0.0,-0.10213999071689117,2.2644999118969045,1.1910700088840152,20.75962340959561,430.96196410823,-53.28405429765204,52.01685520506425,0.0009298083331023425,0.8918716805981013,-0.0014266822905197208,0.08144841932341475,105.3009095027163
78,4,1,0.224778740300158,0.2779213408931586,0.1929152118042042,0.03721627894546097,-0.003195364842300417,0.05090439203770954,0.797274933914907,0.003285189794770891,0.03845305725899398,0.001058678372728102,0.011313964099346485,0.7463705418771974,4.0,0.06187499999999999,0.2644778566968392,0.33910265941404477,0.06,0.08625,0.032389823727711306,2.7764967156660916,2.7873349267615057,0.07347668453975971,0.005398823170955364,0.0019451444586657586,2.612975982746076,2.92885874538283,0.0026656846284875023,0.0024512046901016037,-4.783363819768812e-05,0.000159002956783741,0.31588276263675397,2.5582984979761196,2.5884418702038654,0.11766556366875756,0.013845184873486441,-0.0008626773953794006,2.345116080287906,2.8856499269626883,0.004107406622078219,0.0268649678520878,0.000692250296716565,0.007913033645582407,0.5405338466747822,4.0,0.796875,0.18637136594632686,0.2600762624623322,0.0675,0.095625,0.02782784117945846,74.64362850971922,803.8194444444445,159.363274199485,208.34960873926678,323.44127413256956,0.8333333333333334,0.8333333333333334,46.875,221.46902657234662,61.653336467456846,42896.2624318275,3.592166122092144,0.4148803761582077,0.0,188803.5120960073,0.0,2.6195041791822935,-0.1529947068227593,17.463144400900998,304.96141236671986,-54.489171397843286,34.78054190965553,-0.0016965819983922547,0.8429591345392822,0.0008557178659067661,0.08677156421177995,89.26971330749882
79,4,1,0.2166221040518876,0.239572457426829,0.15493627243948474,0.02400524851744224,-0.0009055833460761971,0.05090439203770954,0.6387808886142703,-0.000781073336960768,0.03099614379399971,1.9271886383970724e-05,0.010246547818779235,0.5878764965765607,4.0,0.06,0.27232718036519993,0.3013454546522133,0.06,0.08249999999999999,0.02607768623033022,2.8300455807212925,2.8443634721244617,0.06962691882705059,0.004847907825348692,0.0018624471452819255,2.7616817585195066,2.9333059781581756,0.001269149669429572,0.0019343714130716871,-2.0310279551652433e-05,0.00014106914907383166,0.17162421963866903,2.5627332429943337,2.601320859789702,0.11222920714915646,0.012595394937328272,0.0006573279688592316,2.4527106148066253,2.940036402009605,0.0003362454906080337,0.021725438324025938,7.236041478416352e-08,0.007217449114099836,0.4873257872029795,4.0,0.0675,0.18781630967708463,0.2303147174575283,0.061875,0.088125,0.020928945057401116,72.30125523012552,829.8611111111111,108.36448982171692,95.60661587986472,150.03254855197255,0.6,0.6,31.25,95.40210951546092,123.90142250999385,37135.061122778796,0.7699839726034284,0.4018754186202278,0.0,7536.66302066171,0.0,3.2593491265341807,-0.8279093810949256,18.386170154153522,338.0512529374857,-54.489171397843286,34.78054190965553,0.0020491954441499796,0.8989919838791491,0.0006592693576583413,0.0919214875628629,89.26971330749882
80,4,1,0.15449759044733954,0.20446837011540794,0.14906481049517084,0.022220317727961195,0.00043873630952907615,0.05090439203770954,0.6387808886142703,-0.0009286589831880874,0.03017471720419865,6.473186252723938e-05,0.009455219776174941,0.5878764965765607,3.0,0.06999999999999999,0.32086471286914203,0.3748217919893711,0.07125,0.09375,0.03478076832536079,2.924260648253413,2.881785150430462,0.062413199295522116,0.0038954074463025622,0.0015563439401876011,2.7616817585195066,2.9333059781581756,0.001345628389084987,0.0018089051959454987,1.852948300971417e-06,0.00012155385973064169,0.17162421963866903,2.5586187257028836,2.6028799041432364,0.1170598334051975,0.013703004596852593,0.0013753848779070117,2.4527106148066253,2.940036402009605,0.0002314152419629641,0.02123090977543702,3.5137441736659186e-05,0.006674222122019953,0.4873257872029795,3.0,0.07749999999999999,0.22093239863904598,0.2821561981841076,0.07874999999999999,0.10499999999999998,0.029355006627524785,67.96460176991151,882.8125,116.14116208842583,46.875,78.125,0.5,0.5,85.9375,33.14563036811941,154.67960838455735,16106.798272799238,0.21428571428571416,0.2833663927458204,0.0,0.0,0.35881501313058295,3.4065908244819783,1.1206692675549343,15.56305002653896,242.2085261285543,-54.489171397843286,37.104240665313995,0.0073878251859531745,0.8595219680754952,0.00024786986760687654,0.08921190974854724,91.59341206315727
81,4,1,0.15536433371426334,0.2029577699465854,0.14703706947967876,0.02161989980117188,-0.0003769752664056193,0.05090439203770954,0.6387808886142703,-7.810387829454794e-05,0.029416000935767222,-0.0003647376527570261,0.00952401900254178,0.5878764965765607,2.0,0.07874999999999999,0.3820551984643866,0.4739783232775548,0.07125,0.09749999999999999,0.04621288651956158,2.924301282904324,2.9120041901478606,0.024001672480093068,0.000576080281841657,0.00013349889937111327,2.8322795668678005,2.9333059781581756,0.00032813386135554514,0.002002078348756446,-5.865863121352806e-05,6.933395815552738e-05,0.10102641129037515,2.5753191390180596,2.6227069042243927,0.10676190218362243,0.011398103757865364,-0.00016862442607652593,2.520909648495726,2.940036402009605,0.0002311326981290107,0.020753081868562222,-0.00030873203664025147,0.006757162297993534,0.41912675351387874,2.0,0.08249999999999999,0.26600436819096895,0.3416604105483101,0.06749999999999999,0.09749999999999999,0.03331189002846023,67.96460176991151,882.8125,116.14116208842583,46.875,78.125,0.5,0.5,85.9375,33.14563036811941,154.67960838455735,16106.798272799238,0.21428571428571416,0.2833663927458204,0.0,0.0,0.2543253914535908,4.697436488073034,0.2441616240941041,24.08689950868211,580.1787279413504,-87.26440216067678,78.51955574606114,0.020451787272602752,1.1144911943015203,0.0003040906369052084,0.09939612724339575,165.78395790673792
82,4,1,0.1699724531146588,0.21212670752802687,0.14152655929068525,0.02002976698465985,-0.0011585638557797585,0.05802923984897443,0.6387808886142703,-0.0027075612961644114,0.023376868344636845,-0.0008110932843810733,0.007796881340642481,0.5807516487652958,3.0,1.045,0.16791490409398888,0.229145070649687,0.06375,0.09,0.023011949019216583,2.9241731772894215,2.901245785581942,0.034691215562974276,0.0012034804372367488,-0.0009024579784758719,2.837499572988783,2.9333059781581756,-0.0006977494552413107,0.0010644592948612763,5.0376341333850196e-06,9.182251261163062e-05,0.09580640516939276,2.5764041742221164,2.6217649960061684,0.10518366139231418,0.011063602623893005,-0.0014136858260198131,2.5085069634069503,2.940036402009605,-0.0023010825651401242,0.016231428263059348,-0.0005204291214511862,0.005321567464243718,0.43152943860265447,3.0,1.0425,0.1138748027828947,0.15132488427425272,0.056249999999999994,0.08249999999999999,0.014907459003411876,69.1891891891892,867.1875,133.7284591298726,78.125,203.125,1.0,1.0,117.1875,132.58252147247765,55.24271728019903,23009.711818284617,2.3999999999999995,0.2884338044418806,0.0,0.0,-0.01718837116409344,3.4627520854673413,-0.045471275893771215,23.791090596516856,566.0159917716727,-87.26440216067678,78.51955574606114,0.005473634523178398,1.0810797550764923,-0.0007178336488616513,0.09002333741252322,165.78395790673792
83,4,1,0.15443103642537628,0.19332669353595314,0.1207560260640038,0.014582017830770367,0.0006380823176725717,0.05802923984897443,0.48055492876148903,0.002635951681469202,0.022798395474492278,-0.00024162541750902465,0.007206312734618568,0.42252568891251463,3.0,1.045,0.16791490409398888,0.229145070649687,0.0625,0.09249999999999999,0.0219008034184741,2.891929795205888,2.8880278100359105,0.032350981525458615,0.0010465860056605646,-0.0006352947633888397,2.837499572988783,2.9264199521903556,-0.00015332817285707568,0.001611023658008949,1.1522341637515421e-05,9.374085567833931e-05,0.0889203792015727,2.566280498575244,2.599522382285406,0.0901691291737771,0.008130471855957302,-7.518924586125921e-07,2.49758696204984,2.8165277643234274,0.0017169705521132672,0.016084607948145858,-0.00015109374338427665,0.004966782973602646,0.31894080227358756,3.0,1.0425,0.1138748027828947,0.15132488427425272,0.057499999999999996,0.08749999999999998,0.01422869078100833,-1.0,-1.0,-1.0,-1.0,-1.0,-1.0,-1.0,-1.0,-1.0,-1.0,-1.0,-1.0,-1.0,-1.0,-1.0,-1.0,30.17082390981467,6.099930337911155,27.976914816727444,-800.4839428079617,-488.8207324743271,-44.40010213851929,-0.05079559524246234,-1.4656903352306032,-0.0011170347687464478,-0.17258458170263657,475.3633031845093
84,4,1,0.15157040534757987,0.17935615886299608,0.10719385948230847,0.011490523510712893,-1.399784855091195e-05,0.03660808498108719,0.48055492876148903,-0.0018309084357939116,0.018530425662951877,0.00014376382453375197,0.005141013503163699,0.44394684378040183,3.0,2.0175,0.12605905373659218,0.23497751813916468,0.0625,0.09749999999999999,0.02454413437824916,2.888102989091956,2.8820773553965253,0.026984339097152508,0.0007281545565101133,5.7919795016358836e-05,2.837499572988783,2.9246199534575124,-0.00037020817323446347,0.0016974828595713695,-1.367670266533468e-05,0.00010788442787013768,0.0871203804687295,2.566280498575244,2.585824884998834,0.07926979962833988,0.006283701133117153,3.09778529100036e-05,2.4875986612928487,2.807250452842036,-0.0014462771536085865,0.013008131783589606,3.451949004892781e-05,0.0034961033872690206,0.31965179154918744,3.0,2.015,0.08612566587095512,0.16273932450850367,0.06,0.09499999999999999,0.017619030633398248,60.71146245059288,988.28125,209.44932216335172,54.6875,233.06927953400466,1.0,1.0,171.875,38.66990209613932,160.20388011257717,19462.38124629907,0.2413793103448276,0.25303643724696356,0.0,0.0,0.26082945460545726,1.9221933325118905,-0.32890876826309756,22.688503863457637,514.768207562132,-87.26440216067678,78.51955574606114,-0.017642270369316187,1.0236781893776317,-0.0005718746803183381,0.08895387117740457,165.78395790673792
85,4,1,0.10557632394245786,0.14246917906903614,0.12521713671597534,0.01567933132734726,-0.0016726616225821187,0.003982318765104617,0.48055492876148903,-0.0013865873915803772,0.017534466097764892,8.573771335094806e-05,0.00440261003944173,0.4765726099963844,2.0,3.0,0.1424742039410265,0.30838218022170916,0.06375,0.10499999999999998,0.03317926356594311,2.8641334544747536,2.8674704941709677,0.028061840493945757,0.0007874668919076539,2.8276051941197777e-05,2.8135215613593116,2.90978234689242,-0.00047167262353780734,0.001764303527601201,8.993788253230014e-06,0.00010465255414060394,0.09626078553310835,2.528432221048755,2.550250132011227,0.09597349031531603,0.009210910843304061,-0.001138007003951851,2.4173581992861957,2.807250452842036,-0.001276781293964448,0.012389569286089624,6.68682174129918e-05,0.0030988283510674447,0.38989225355584045,2.0,3.0,0.10057664992422222,0.2178347149761901,0.0675,0.10874999999999999,0.02465503260450421,65.08474576271186,921.875,199.28256739280198,76.9001201053823,281.53920316124123,1.0,1.0,156.25,197.8481240960685,159.4294569272288,99094.68837701916,1.2409759646009193,0.18086453246518358,0.0,40158.86002918035,0.0,1.6968635260923177,-0.4073461581582721,15.47010103600621,239.32402606424037,-82.07018071582011,31.401860132649734,-0.004952438924996478,0.7593506859091005,-5.312794881762531e-05,0.07241313313007094,113.47204084846985
86,4,1,0.09793533720285989,0.21105489035681718,0.24050078231629415,0.05784062629474951,0.0023571998330891106,0.003982318765104617,0.934625862633399,0.002689931638892419,0.03319866274828219,0.00032192181267983453,0.009611875887197655,0.9306435438682944,2.0,3.0,0.3476370030455246,0.6193638873536378,0.07125,0.11249999999999999,0.06967843732728424,2.8627144484683167,2.861492410696368,0.03465508644898148,0.0012009750167863798,-0.000682502851245081,2.8074865305320817,2.90978234689242,0.00017763199048984786,0.0021347205683328323,2.7902752913768388e-05,0.00013009580340123133,0.10229581636033824,2.524502404227719,2.593288031201971,0.16480585818716859,0.027160970892809125,0.0011615651455813756,2.4173581992861957,3.060208661343094,0.0019228639042533856,0.02301668238283764,0.00026940132001168626,0.0066554208726767,0.6428504620568982,2.0,3.0,0.24484402171400976,0.43773316229275516,0.075,0.12,0.03643891087280718,-1.0,-1.0,-1.0,-1.0,-1.0,-1.0,-1.0,-1.0,-1.0,-1.0,-1.0,-1.0,-1.0,-1.0,-1.0,-1.0,47.409227223030996,4.559848665624118,66.11366921239875,1309.4921462089978,-902.1527872085571,-139.01152473688126,-0.0768943509926918,-0.5697134796050654,-0.0004993099067918835,-0.1345731976721401,823.0361006259918
87,4,1,0.14628545752932226,0.2522228670434676,0.25340228819926625,0.064212719664624,0.0034425341462317135,0.003982318765104617,0.934625862633399,-0.002573726679879121,0.03233368885053972,0.00022761527201298106,0.009288275674126314,0.9306435438682944,2.0,1.5225,0.3292103070596235,0.48003194256282533,0.06,0.09,0.050937528070924984,2.875968871072823,2.8767760142530414,0.05130195450167433,0.002631890535691863,0.0003188802340648618,2.8074865305320817,2.9827606961937647,0.0006372071786567697,0.0027514568889442062,-7.6189674596049976e-06,0.00017107088477382335,0.17527416566168297,2.5981646705825554,2.6323957760436647,0.17698998879708608,0.03132545613439266,0.002590442967315416,2.4173581992861957,3.060208661343094,-0.001339953526785398,0.022102390594963762,0.00015441902524866437,0.006404808986262789,0.6428504620568982,2.0,1.53,0.23667570218542267,0.34447869618760385,0.045,0.075,0.00878614937973179,-1.0,-1.0,-1.0,-1.0,-1.0,-1.0,-1.0,-1.0,-1.0,-1.0,-1.0,-1.0,-1.0,-1.0,-1.0,-1.0,36.257308351299514,5.584325444780163,41.14372972910545,-72.96257793798895,-634.9214609265327,-77.83823010325432,-0.05999821079472309,-1.1032854667293912,-0.0009449807398385781,-0.15483394870884082,598.2396585941315
