,subjectID,Label,median_p,mean_p,std_p,var_p,slope_p,min_p,max_p,fdmean_p,fdstd_p,sdmean_p,sdstd_p,drange_p,peaks_p,rise_time_p,max_deriv_p,amp_p,decay_time_p,SCR_width_p,auc_p,median_t,mean_t,std_t,var_t,slope_t,min_t,max_t,fdmean_t,fdstd_t,sdmean_t,sdstd_t,drange_t,median_f,mean_f,std_f,var_f,slope_f,min_f,max_f,fdmean_f,fdstd_f,sdmean_f,sdstd_f,drange_f,peaks_f,rise_time_f,max_deriv_f,amp_f,decay_time_f,SCR_width_f,auc_f,bpm,ibi,sdnn,sdsd,rmssd,pnn20,pnn50,hr_mad,sd1,sd2,s,sd1/sd2,breathingrate,lf,hf,lf/hf,median_bvp,mean_bvp,std_bvp,var_bvp,min_bvp,max_bvp,fdmean_bvp,fdstd_bvp,sdmean_bvp,sdstd_bvp,drange_bvp
0,5,1,0.13420667992387125,0.15571473255562265,0.0924980348119883,0.008555886444079801,0.00020926059113651546,0.03508555958451097,0.418655966356659,-0.001264323920398716,0.016675924840993995,0.00020851228203727981,0.006284072746956972,0.38357040677214804,5.0,0.055499999999999994,0.14059879969111608,0.13440157725465837,0.046875,0.06375,0.007333445600359572,1.3078476206150604,1.3030774403976573,0.1061769118864509,0.011273536617743158,0.003049363290165984,1.1418790717591496,1.4598429585236037,0.00266011256380091,0.0009077776729664891,1.3485879215023126e-06,4.879719954748402e-05,0.3179638867644541,3.0147323009394382,2.9606892970040253,0.13878027971930998,0.019259966038969917,0.003045099974356047,2.7397551844011683,3.1923551451630465,0.0012412089935041116,0.01616551371570084,0.0002200045923240033,0.005883294049668496,0.45259996076187825,4.0,0.056249999999999994,0.12043003056382284,0.12148512105247689,0.056249999999999994,0.08062499999999999,0.010053022878248379,-1.0,-1.0,-1.0,-1.0,-1.0,-1.0,-1.0,-1.0,-1.0,-1.0,-1.0,-1.0,-1.0,-1.0,-1.0,-1.0,0.30876439495364755,0.015432957427478772,-5.639699036785757,-3805.957289732699,-105.97002831140173,-110.90594806632754,-0.0025496962984356275,-2.515749159258486,0.002591882943303237,-0.3547977963017619,37.670506204775705
1,5,1,0.12528471842884523,0.15047335207383616,0.09519382960931322,0.009061865195686959,-0.0014353970852307378,0.01958661536778384,0.418655966356659,-0.0002624572992656693,0.01620329477137696,2.3353546349086952e-05,0.006280499239957804,0.3990693509888752,5.0,0.056999999999999995,0.14257947807141544,0.13718485718175616,0.050624999999999996,0.06937499999999999,0.007810630007686803,1.4055312635959485,1.3822575569408002,0.09079428331984753,0.008243601883564744,0.0025694459432848912,1.199549011403064,1.5077355889487598,0.00259024976221774,0.0009530463671509743,-5.2559758066871486e-06,4.285061898068079e-05,0.3081865775456958,3.040264047593209,3.029883668664545,0.09037823047476679,0.008168224543750064,0.001067435240191175,2.7546171126744223,3.1923551451630465,0.00216370425949274,0.015525067549190847,-1.9697064781346955e-05,0.00585965751015879,0.4377380324886242,4.0,0.056249999999999994,0.12443899886952758,0.12317697143828499,0.06937499999999999,0.09187499999999998,0.010836697114006286,-1.0,-1.0,-1.0,-1.0,-1.0,-1.0,-1.0,-1.0,-1.0,-1.0,-1.0,-1.0,-1.0,-1.0,-1.0,-1.0,0.3090438264725916,0.015411385949721024,-5.662277306020741,-3807.8612209379253,-104.3994381205365,-106.93128282070018,-0.0024913290368157566,-2.4872738726249657,0.0025815608758240722,-0.3472195618397882,39.324301754074355
2,5,1,0.11290779644044119,0.12506526637070095,0.07446268439437595,0.005544691367216439,-0.0006409408054569509,0.013725631508302437,0.26534788559259453,-0.0007151264984158183,0.01410166834641034,-1.7728177022437494e-05,0.005188264924990235,0.2516222540842921,4.0,0.789375,0.1014598753665515,0.14006453606209934,0.05499999999999999,0.075,0.007990261644386055,1.4605002809126486,1.4574884378317534,0.07275062841880263,0.005292653935330692,0.002083121969400066,1.3097979672562363,1.5926332281414635,0.002383444770472956,0.000761047983888172,-1.1918233416712925e-05,4.377314014453809e-05,0.28283526088522715,3.0498869538947186,3.076376814201472,0.08424803506066149,0.007097731411582447,0.0013447029342215258,2.9701641686614164,3.318388123897427,0.0015242418051206296,0.01360668974508459,-6.872582362618211e-05,0.004846508331787518,0.3482239552360107,5.0,0.645,0.08483578579912425,0.1299906611212803,0.0775,0.09999999999999999,0.011130582297174854,-1.0,-1.0,-1.0,-1.0,-1.0,-1.0,-1.0,-1.0,-1.0,-1.0,-1.0,-1.0,-1.0,-1.0,-1.0,-1.0,0.3093396137375419,0.015408720607806209,-3.963226036307276,-3608.084969690047,-113.54032317349811,-114.76013614037836,-0.0026269394090342882,-2.4605402415445874,0.0025300425809260097,-0.3568757390092917,36.49390668954371
3,5,1,0.08534331742993989,0.10038864333814505,0.06800969326207507,0.004625318377601538,-0.0003076798775771263,0.013725631508302437,0.26534788559259453,-0.000281747937300087,0.012616999745921148,0.00015293074742210878,0.0045674071750287076,0.2516222540842921,3.0,1.0374999999999999,0.09532600384520046,0.15496193939438999,0.065,0.09749999999999999,0.016439748114740266,1.5089306116879113,1.5204730119199568,0.06911584756041264,0.004777000383994198,0.0019773571400530173,1.4067814237605434,1.617966875096989,0.0017425882260765488,0.000931446233949664,-2.5078548873841423e-05,6.015203626890853e-05,0.21118545133644573,3.0811143874651883,3.112091023284838,0.08770305348330071,0.007691825590294705,0.0015544603163970107,2.9701641686614164,3.318388123897427,0.0014385363022091072,0.012392099846049755,8.357029151874103e-05,0.004341233914657854,0.3482239552360107,4.0,0.795,0.07691860180518217,0.13613268638502063,0.10499999999999998,0.13999999999999999,0.026750702082546682,-1.0,-1.0,-1.0,-1.0,-1.0,-1.0,-1.0,-1.0,-1.0,-1.0,-1.0,-1.0,-1.0,-1.0,-1.0,-1.0,0.3096343848654455,0.01541062001261874,-3.33390053423161,-3502.31441770945,-112.88721493335703,-107.40325804608335,-0.002574304804857378,-2.394959987696424,0.002515207088455992,-0.34417599535817667,39.930737311456795
4,5,1,0.07099268179529783,0.09100935621375207,0.06471243548291335,0.004187699306130222,0.0001003149230950687,0.013725631508302437,0.26534788559259453,0.0006610843779993353,0.011091249982534307,-3.0414711749551444e-05,0.003979488674157405,0.2516222540842921,3.0,1.035,0.0714084671164457,0.13407986657169646,0.06375,0.0975,0.016427845121456976,1.5938286579933492,1.5637751949350307,0.05511108974951184,0.0030372322133787487,0.0014625434754122226,1.4611576033016935,1.617966875096989,0.0012714312143522004,0.0012209722851357625,-2.9127966480700187e-06,6.957401244080667e-05,0.15680927179529558,3.146178535947496,3.1438077789929593,0.08407742903264578,0.007069014072739588,0.00145609673562489,3.015296792389619,3.318388123897427,0.0017680979288590064,0.010820833986347974,-4.074297230567588e-05,0.0038016039722055246,0.3030913315078081,4.0,0.789375,0.058631967461288514,0.11356791515856157,0.09375,0.13124999999999998,0.028602154366945787,-1.0,-1.0,-1.0,-1.0,-1.0,-1.0,-1.0,-1.0,-1.0,-1.0,-1.0,-1.0,-1.0,-1.0,-1.0,-1.0,0.30991397610087823,0.015389078094488903,-3.592612825153637,-3525.4244604411288,-114.57980822957393,-112.9794892172572,-0.002624187511303236,-2.4055466830343546,0.002532690005513939,-0.34900977258306276,36.40874735839773
5,5,1,0.07594550528025999,0.10011135731798496,0.06993082086062505,0.004890319706240832,0.0001898318026544175,0.013725631508302437,0.26534788559259453,0.0017574456401794813,0.012379506480885562,5.6969821736657136e-05,0.004298163308870331,0.2516222540842921,3.0,1.035,0.0714084671164457,0.13407986657169646,0.085,0.11499999999999999,0.017557108004428317,1.6107560643788563,1.6007650261579935,0.03269769153275111,0.0010691390315709435,0.0007979851180888716,1.5101256344270628,1.642598225653006,0.0011153777064075296,0.0012053766767363718,-1.8418229531011465e-05,6.776493260184572e-05,0.13247259122594324,3.1766019488904176,3.1866516613018,0.07648943070272178,0.005850633009226478,0.0009252124477808892,3.015296792389619,3.343236316532076,0.002728374071405263,0.012007694776575123,6.388546252987052e-06,0.004068584823171081,0.3279395241424572,4.0,0.7837500000000001,0.05514012602875251,0.10883739070946907,0.0725,0.09999999999999998,0.019211181729101853,-1.0,-1.0,-1.0,-1.0,-1.0,-1.0,-1.0,-1.0,-1.0,-1.0,-1.0,-1.0,-1.0,-1.0,-1.0,-1.0,0.3101935290499718,0.01536761398301384,-4.5542504004688595,-3612.62596911489,-114.45450352423302,-121.40013990038045,-0.002665476379994861,-2.508686151593135,0.0025293067387253945,-0.37087722819406144,31.35744384143632
6,5,1,0.09243590481393382,0.10059779260947464,0.052647377069250025,0.0027717463122717933,0.0005211516926252643,0.027926244309768596,0.2282418388928966,-0.00030281022347607617,0.009796657355882652,0.00010296918708273707,0.003264638893844268,0.200315594583128,2.0,0.0525,0.08139370004963747,0.07927352936744164,0.09,0.10874999999999999,0.010800262519154336,1.6177948834991556,1.6226144879951199,0.013607210702543268,0.00018515618310340805,0.00033312711467098236,1.5950240878452349,1.6428149508451213,0.00038040977583205703,0.0007641168190824755,-1.1229540670197602e-05,7.763077521694715e-05,0.04779086299988644,3.205976637540004,3.20768451912821,0.055044164501587965,0.0030298600456778765,0.0007982795375241709,3.128675994784124,3.343236316532076,0.00012713850479612968,0.0093010531584153,5.426678996257039e-05,0.003065158471099176,0.21456032174795237,3.0,0.04499999999999999,0.05673368820482061,0.053663482984499,0.0375,0.04875,0.0010379123128593753,62.4390243902439,960.9375,156.44519058203738,101.5625,192.95451617544484,1.0,1.0,132.8125,116.00970628841796,71.81553246425881,26173.547193298782,1.6153846153846139,0.2603488674824264,0.0,0.0,-0.0059260398673440795,2.0576148765550784,-0.9474563704594126,45.823033473793025,2099.750396740356,-191.04926779084565,156.93302903473057,-0.008544076877796281,2.5124928482739204,0.0009765316569893767,0.22411926944662502,347.9822968255762
7,5,1,0.08951338539516585,0.09607947052311921,0.054863693828204496,0.003010024900474964,-0.00020492079584297478,0.013555846521857422,0.2282418388928966,0.0006694505577452789,0.010368630434292557,0.00010559566329039965,0.0033139029089606304,0.21468599237103916,2.0,0.06375,0.07572563846069613,0.08428985387377463,0.0825,0.105,0.011002081363537778,1.6368293352357863,1.6421122597573894,0.03629640290969048,0.0013174288641825877,0.0008689980674429,1.6065091094078037,1.7703420251726962,0.0013269733448853737,0.0021307205022318156,6.438721275369477e-05,0.00010284485494869721,0.16383291576489256,3.2147615616301977,3.2216351667225505,0.053871649224784025,0.002902154590198173,0.0006124512844258865,3.130003575341535,3.358119650904045,0.0018805103887401865,0.010390030408960544,0.00014619792426426767,0.0031227863751336956,0.22811607556251,3.0,0.049999999999999996,0.05573332427805925,0.05628588561815665,0.0375,0.05249999999999999,0.0014063423402862606,-1.0,-1.0,-1.0,-1.0,-1.0,-1.0,-1.0,-1.0,-1.0,-1.0,-1.0,-1.0,-1.0,-1.0,-1.0,-1.0,0.3107667839684099,0.015348498829869425,-7.6086670401534775,-3840.9604671194365,-107.96341432737535,-123.2337962172951,-0.002493830415943841,-2.582987329140618,0.0024716983759868177,-0.378895403882359,29.957213709255967
8,5,1,0.09717460442875364,0.11850008595879621,0.06854821578547222,0.004698857887371664,0.0002873220166189875,0.013555846521857422,0.27149790069576785,-0.0005833827981265665,0.011826692901314191,1.4392470919556873e-05,0.0036767576957529324,0.2579420541739104,2.0,0.045,0.04344131206109636,0.0362960823472357,0.0375,0.056249999999999994,0.0020423273830239086,1.6427640931723864,1.7110939587878582,0.10987814165503616,0.012073206013564193,0.0027526891624748005,1.6136038208016732,1.9865054213675726,0.0031371526416272676,0.003059881438788627,4.163382037708866e-05,0.00011663753036617398,0.3729016005658994,3.238245864855071,3.306961223195383,0.13517807575216584,0.018273112164058285,0.0028358668937306557,3.1545692112765336,3.5811130991527738,0.0024041747039589296,0.011930032126197965,1.7162591655060325e-05,0.0036241908632201106,0.4265438878762402,2.0,1.52625,0.05246662999755625,0.1411624942697336,0.045,0.06749999999999999,0.002383448227158543,72.28235294117647,830.078125,142.87212838184843,52.40784322265132,128.3724744152733,1.0,1.0,70.3125,67.43233008450025,161.72063706628478,34259.69425854643,0.4169679968355654,0.15064778547755348,0.0,26171.146934998706,0.0,1.8447536078313371,-0.37694183776305934,45.098974541687696,2033.917504711795,-190.20051622070153,122.07853763046312,0.05440198362143167,2.5910964850984706,0.003643337235021728,0.25014466829887394,312.27905385116463
9,5,1,0.09415700380463057,0.11238468192140942,0.06361602365912658,0.004046998466198553,-0.00015737593949452264,0.013555846521857422,0.27149790069576785,-0.0013466911145028008,0.010488493597439889,8.663478422661474e-05,0.00362775163344893,0.2579420541739104,4.0,0.04125,0.048572085203249946,0.03527971717683058,0.035625,0.05249999999999999,0.0018833580409117188,1.7739488618766575,1.8172581348786967,0.16993326184508895,0.02887731348131156,0.004743772457852819,1.6356225234252886,2.0921951343461367,0.0037483910886678073,0.00290701468938537,4.681829162280863e-06,0.00015040254090410674,0.4565726109208481,3.378699894723313,3.4004173497011454,0.16870247801671637,0.028460526088980673,0.004278470320765454,3.2038487312871275,3.6213753110307207,0.002262430024218191,0.010944891749424649,4.399277399183554e-05,0.003578666061647814,0.4175265797435932,4.0,1.524375,0.05645535697867299,0.10903816736077054,0.045,0.06749999999999999,0.002383448227158543,76.29139072847681,786.4583333333334,116.69456511670873,106.76289350559725,232.93830493555583,1.0,1.0,46.875,156.12788196649484,61.204842249970376,30020.375744986588,2.5509073502525106,0.14136273678258413,0.0,7519.83516097479,0.0,2.834439323809798,0.42120632387694257,46.71642576576023,2182.4244363277858,-190.20051622070153,122.15434666571473,-0.012967788548574182,2.6702422920588504,0.00025839284891455175,0.2514461226684405,312.35486288641624
10,5,1,0.0859984094647613,0.10080905950901624,0.06701544019649201,0.004491069224729597,-0.0002158794491107885,0.013555846521857422,0.27149790069576785,-5.702361599976222e-05,0.01134652626616358,-4.121306325730774e-05,0.003979161186926473,0.2579420541739104,4.0,0.046875,0.06985937898445863,0.06398088563862218,0.034999999999999996,0.049999999999999996,0.001781634402314107,1.9894710993780167,1.9274751791263778,0.1612545311326095,0.02600302381079773,0.00439999143982961,1.640165632930205,2.0929254120289618,0.0035259827696937753,0.003214885774667963,-1.447402183114103e-05,0.00015550295511070436,0.45275977909875675,3.5624008455874536,3.4925292154184424,0.15849850959561324,0.025121777544030704,0.003910457693689051,3.2063131885928744,3.6928119155139063,0.0032490559971186236,0.01122208557590331,-6.495185627812353e-05,0.003792503889787115,0.4864987269210319,5.0,1.2315,0.06294237415957404,0.10799597053034304,0.03,0.045,0.00046284950457895044,70.99159663865547,845.1704545454545,147.5496090758283,112.58500190105796,209.21502417198846,0.8571428571428571,0.8571428571428571,93.75,146.91502385628868,154.3248751557465,71228.20779130369,0.9519853731164227,0.1076194575979337,0.0,30229.398424472318,0.0,1.1838107275853524,0.042751415316433734,43.51916583392327,1893.9177948805145,-190.20051622070153,122.15434666571473,-0.00534719162231394,2.425153060554155,-0.0009214618790180632,0.22846942866479877,312.35486288641624
11,5,1,0.09207325135386807,0.10586639835477094,0.06350708360473628,0.0040331496679789644,-0.0010175595412721115,0.017500098848958864,0.27149790069576785,1.7480196968537067e-05,0.010899087412243467,-0.00034252178609091473,0.0038933333561020408,0.253997801846809,5.0,0.052500000000000005,0.06293847379370222,0.06265469935309571,0.043125,0.061875,0.005023679615421486,2.0668012683095496,2.0284757090537724,0.09236744525263249,0.008531744942498061,0.0022406757017329228,1.7775556985806185,2.156842924343535,0.003214692120873981,0.003177893019649704,-1.3528208471160856e-05,0.0001603753636602785,0.37928722576291674,3.591100589593526,3.591527910557237,0.055495319672873925,0.003079730505594468,0.001138657741164978,3.3992801385425806,3.7329561266079,0.003056507490326371,0.010875337030535203,-0.00037769392177408416,0.0038093391844197327,0.3336759880653193,4.0,0.789375,0.06070901559582431,0.07324130205457513,0.045,0.0675,0.006029763976871374,75.71830985915493,792.4107142857143,73.1516500364908,31.25,128.8470508005519,1.0,1.0,46.875,88.38834764831844,44.19417382415918,12271.846303085118,2.0000000000000018,0.18037518037518036,0.0,9732.159659864687,0.0,-2.431104304803795,-1.3455521212611814,43.06771012863821,1854.8276557244064,-190.20051622070153,122.15434666571473,-0.037854808934422536,2.216704343177662,0.002647074090797072,0.20435346919851288,312.35486288641624
12,5,1,0.09245590280155891,0.10310531403789105,0.05635141113039126,0.0031754815363863836,0.0007423969423959174,0.017500098848958864,0.2701142070473974,0.00031837502593442,0.010919039025349343,-0.00011864173606217495,0.004281925666214716,0.25261410819843855,4.0,0.0675,0.08287546286118229,0.10181419819794237,0.05249999999999999,0.075,0.01013071457147329,2.087056144806236,2.114417301543694,0.07314788065970801,0.005350612445006886,0.0018278912600142845,1.9924367773884608,2.2674150741666197,0.0023168254880590756,0.0024794874459179513,-4.66516791536975e-05,0.0001800289660641904,0.2749782967781589,3.617798720905536,3.669347965844898,0.1051690814552784,0.011060535694146981,0.002407965367638401,3.542696313900655,3.9080214841564502,0.002515194051683491,0.010882447889664276,-0.00018456966949494298,0.004040233822733748,0.36532517025579514,4.0,0.7893749999999999,0.07704027621661691,0.10436836557067242,0.045,0.0675,0.006029763976871374,61.44,976.5625,161.56330592964687,78.125,174.69281074217108,1.0,1.0,125.0,55.242717280199024,110.48543456039806,19174.759848570517,0.49999999999999994,0.17076502732240437,0.0,106512.93605535223,0.0,-1.394033530366191,0.5146332594850552,32.37860579009094,1048.3741129101104,-112.2462840009343,122.15434666571473,-0.056887493641657905,1.7116199800305407,-0.002032078192565193,0.16598027008456573,234.40063066664902
13,5,1,0.09751508352671814,0.10654824739026787,0.05551937401261146,0.003082400890752236,0.0005615493867890322,0.017500098848958864,0.2701142070473974,2.8426388400987992e-05,0.011282232312329383,-6.224395731794416e-05,0.004416350293674616,0.25261410819843855,6.0,0.056249999999999994,0.08487584845934078,0.0881973406943532,0.0495,0.0705,0.007655021298382925,2.1596787602517313,2.163297347045192,0.08050943160013779,0.006481768576577265,0.0020884957107659744,2.062378657502096,2.2674884379268905,0.0011221419253505728,0.0026843913802027343,-1.1960767969129705e-05,0.0001694945275450864,0.20510978042479433,3.739424761867297,3.7179359245152606,0.10688725691298724,0.01142488569038294,0.002471615345775595,3.557670313177129,3.9080214841564502,0.0010621929482746077,0.01150777211461518,-9.005117053501414e-05,0.00423709561729958,0.3503511709793212,5.0,0.6405000000000001,0.08346777799474196,0.09993859540933885,0.039375,0.061875,0.00480852633642522,62.56619144602851,958.984375,133.02774378013925,103.27581301876785,217.49079542304773,0.75,0.75,93.75,149.53847455117943,49.02304842973101,23030.487579005883,3.0503707815217957,0.3912873353332464,0.0,29554.693512794816,0.0,-2.132227000809802,-1.117662114069572,29.433344069979785,866.3217431418142,-112.2462840009343,117.02924901481909,-0.0010279525759503342,1.5480899188157857,0.00024137483420617358,0.16004605951393863,229.27553301575338
14,5,1,0.10394313430074975,0.11786868058810938,0.05111986546615371,0.0026132406452776553,0.00018771469224703025,0.03819708096290049,0.2701142070473974,-0.0004583571716773265,0.011246208529271664,4.25033381097144e-05,0.004466778475031704,0.23191712608449694,6.0,0.057499999999999996,0.08328533560557604,0.0859247020015576,0.05249999999999999,0.0735,0.007802055544232247,2.226321558813515,2.199998633455448,0.06601089507509296,0.0043574382686149314,0.0013970375865049755,2.062378657502096,2.2674884379268905,0.001428112691164507,0.002488124920729225,7.205662392183639e-06,0.0001633730456220932,0.20510978042479433,3.7900553428598958,3.7626917493518857,0.0891565674374481,0.007948893517228231,0.0014842401105488868,3.56833474487806,3.9080214841564502,0.0009004221618330829,0.011527626199330886,7.298171566368453e-05,0.004321584774658114,0.33968673927839044,5.0,0.642,0.08332205300945361,0.09960837009726742,0.046875,0.06937499999999999,0.005725382410378154,60.0,1000.0,122.23504509754966,23.4375,258.87564884032645,1.0,1.0,93.75,182.30096702465676,49.718445552179105,28474.518375127198,3.6666666666666674,0.20012007204322593,0.0,35603.58806558679,0.0,2.6853156786062793,0.44907020939092335,29.200525079687413,852.6706649294537,-112.2462840009343,117.02924901481909,0.004749488806189136,1.552503526852286,9.605039503519386e-05,0.1597009045567064,229.27553301575338
15,5,1,0.09710783800285215,0.10555187787284111,0.06267365665463746,0.0039279872384633836,-0.0012698808017208353,0.009703713554945195,0.2701142070473974,-0.00037660559696979225,0.011069667994865685,5.8648907797043935e-05,0.004334564977215851,0.2604104934924522,5.0,0.6375,0.09289143212055592,0.10545836851005246,0.058499999999999996,0.08249999999999999,0.011172932618811957,2.2342238963788117,2.234899771111077,0.02031774259235961,0.00041281066404938373,6.333060576663133e-06,2.162514596159927,2.2674884379268905,0.0005336243564006601,0.0021168545637665482,-5.7214491887723944e-05,0.00011347644213405484,0.10497384176696345,3.7900553428598958,3.7838366978698756,0.05549091559018188,0.0030792417130366904,-0.0011824625839138275,3.68909693897372,3.9080214841564502,0.00014329088758986233,0.010979320382227396,-1.1122313280829502e-06,0.0041966590398687074,0.2189245451827304,5.0,0.642,0.08332205300945361,0.09338606335687646,0.058499999999999996,0.08249999999999999,0.010149369172513606,67.96460176991151,882.8125,205.66322782950286,0.0,281.25,1.0,1.0,140.625,0.0,0.0,0.0,3.7062693382041507,0.2833663927458204,0.0,0.0,-0.13933777319751783,4.207844928113267,0.6976519650078252,21.587874906199332,466.03634296571084,-105.4980790164674,69.06966988332576,0.05752073266465666,1.2949233177937176,-0.001301109552312752,0.13899618359950147,174.56774889979317
16,5,1,0.08626937407182618,0.08796152160979734,0.04596726485204492,0.0021129894379780445,-0.0003045568923354531,0.009703713554945195,0.20207635347363526,5.263392262113128e-05,0.009499629119265078,0.0002246880436259811,0.0036631396406072484,0.19237263991869005,5.0,0.642,0.07806236583191296,0.07735053512303741,0.05062499999999999,0.073125,0.00648307264308269,2.229248917482339,2.2288281988615277,0.01856854024605122,0.0003447906868692239,-0.00044568437066780966,2.188501987154471,2.2674884379268905,-0.0006624271960645263,0.0007921923711651111,-6.60953619677033e-06,6.970922464401297e-05,0.07898645077241939,3.7581631918683005,3.761528675248823,0.044251745723305355,0.0019582169995600736,-0.0006917710042677101,3.68909693897372,3.8650044689168626,-0.00063418348885483,0.009141931748418404,0.0002424751477127655,0.0034718160851914563,0.17590752994314274,5.0,0.05399999999999999,0.06481580779353777,0.06550637466683903,0.048,0.0705,0.005573041063658879,73.00380228136882,821.875,220.88246308840365,0.0,281.25,1.0,1.0,234.375,0.0,0.0,0.0,3.357315599326669,0.24354603019970775,0.0,33685.16999238321,0.0,2.76266524715627,-0.21310360141997756,16.622758942420145,276.3161148578089,-73.23550424221183,33.329570909808744,0.0017999970568877996,1.0048719555881307,0.0003594938899179662,0.12062818815517132,106.56507515202057
17,5,1,0.09123993241779549,0.08977039838931108,0.04725533007927531,0.0022330662209012614,9.285768449270885e-05,0.009703713554945195,0.20207635347363526,-0.00020758205418290436,0.009217479590850402,1.801038655766165e-05,0.003506276156900855,0.19237263991869005,5.0,0.6495,0.07946643522143948,0.08410802550748575,0.05437499999999999,0.076875,0.0070446518348369295,2.2229350413907865,2.2103844835646735,0.023374819862382313,0.0005463822035988227,-0.000592631595631612,2.164483210098728,2.237707192858722,-0.0005266522891826627,0.0006624778451618261,-3.385158471480576e-07,4.897419903539599e-05,0.07322398275999431,3.7385671164649,3.7462179852488626,0.042213762063652904,0.0017820017075667008,-0.0004712462738919817,3.6641491652706364,3.8650044689168626,-0.000687596404438943,0.008764655992502734,1.7395688989681655e-05,0.003276610759407376,0.20085530364622617,4.0,0.06,0.0711886718981285,0.07671902450753865,0.054375,0.07875,0.0067491258599607995,73.49282296650718,816.40625,202.33470056984171,0.0,328.125,1.0,1.0,195.3125,0.0,0.0,0.0,3.5501474170681844,0.3063725490196078,0.0,0.0,-0.1588117442091712,2.1013777138165457,0.8037139022063509,14.643571148200154,214.43417597239997,-57.031759228535094,37.48271562289901,0.0007494633638956231,0.8889647516240008,-0.0004191269948306597,0.10443630374680735,94.5144748514341
18,5,1,0.09104857655539708,0.08660932957424156,0.043484728224246656,0.001890921588736594,0.0008128285045366989,0.009703713554945195,0.17512040498431525,0.00039349435327254906,0.00853740631154277,1.7183445975070253e-05,0.003470755782973112,0.16541669142937004,6.0,0.5437500000000001,0.07168476823309415,0.06944943891065383,0.052500000000000005,0.073125,0.005303710368110403,2.1880725405138612,2.19043615189169,0.033507783588098694,0.001122771560986856,-0.0009624534108967396,2.129968120851302,2.237707192858722,-0.0008711563486327456,0.0004592896231443676,-1.3288142061097334e-05,3.303166615154274e-05,0.10773907200742006,3.723567464559662,3.724683165175328,0.03128658212969058,0.0009788502213578737,-0.000139520227540724,3.6574761854260127,3.7936019088075015,-0.0004512419710910672,0.008143189910692863,-6.9614847015952995e-06,0.003208508693019366,0.13612572338148876,5.0,0.051000000000000004,0.061007595997641315,0.05849730298351448,0.046875,0.06937499999999999,0.004452072210152532,-1.0,-1.0,-1.0,-1.0,-1.0,-1.0,-1.0,-1.0,-1.0,-1.0,-1.0,-1.0,-1.0,-1.0,-1.0,-1.0,0.31377608818496666,0.015021707250210639,-4.955123995003348,-3787.7372244631224,-113.23705354106039,-115.76750398283843,-0.0025455514159987633,-2.435525992092148,0.0026610259239121287,-0.35252441328079764,37.72933357404693
19,5,1,0.09151481451758567,0.08873372906297852,0.04289718160479887,0.0018401681896350944,-0.0005691957523980749,0.004565127712945413,0.17512040498431525,-0.00068666892695429,0.00820290234856924,-8.282296911843512e-05,0.0033290286697673518,0.17055527727136982,5.0,0.05249999999999999,0.07179284812177315,0.06570477849824309,0.052500000000000005,0.073125,0.005303710368110403,2.1639830118890835,2.16224145152414,0.03244189314126381,0.00105247643058918,-0.0009317953295434504,2.1174203846033817,2.22309127459352,-0.0008866252061435746,0.0003566151187411933,8.420646740890196e-06,2.263376205758654e-05,0.1056708899901384,3.7178776822495294,3.7003345234745595,0.05975615634485786,0.003570798221111097,-0.001406158696253576,3.577775821610281,3.7936019088075015,-0.0014671580423197847,0.00784254504608203,-6.0655907417997426e-05,0.003071085097041041,0.2158260871972204,4.0,0.04875,0.060977118076773085,0.05637897272049963,0.047499999999999994,0.06999999999999999,0.004429257239402963,-1.0,-1.0,-1.0,-1.0,-1.0,-1.0,-1.0,-1.0,-1.0,-1.0,-1.0,-1.0,-1.0,-1.0,-1.0,-1.0,0.31407278607997485,0.015023117823198137,-5.342708337650713,-3774.199856857786,-111.25318516863092,-113.30316396001865,-0.002491197847634674,-2.4422722459317563,0.0026361266589611924,-0.35205174542672285,38.61840990811933
20,5,1,0.06587241378435252,0.07224555941719629,0.04780877603415966,0.0022856790658844386,-0.0009537849370022063,0.0025335761033907114,0.17512040498431525,-0.0008399568795352153,0.006768766901845502,-5.458092276439929e-05,0.0026024210586696153,0.17258682888092453,3.0,0.05499999999999999,0.06984004448229034,0.06460853662585664,0.06,0.07874999999999999,0.006061353698010272,2.129483446361168,2.1370159653203067,0.028702971088788873,0.0008238605493238499,-0.0008164958459043512,2.077894890047988,2.187643093873251,-0.0009294477273086595,0.0005607910138394846,-1.5907706795673104e-05,4.631462632284242e-05,0.10974820382526307,3.665057661799298,3.661427197626615,0.06541867515327553,0.0042796030588097885,-0.0016549160935536394,3.5693480762462033,3.7760703356318657,-0.0016271657211592535,0.006450246226074548,-8.369424689397923e-05,0.0024548461745944705,0.20672225938566235,2.0,0.04875,0.062437203124910745,0.05640563654777364,0.06,0.08249999999999999,0.006075888145742463,69.81818181818181,859.375,151.48999554426027,39.0625,199.18044974971815,1.0,1.0,78.125,138.10679320049755,193.3495104806966,83889.574337496,0.7142857142857142,0.23282887077997672,0.0,39005.17216580336,0.0,0.7347377665740953,-0.6225357378087492,15.479687268954779,239.62071794464066,-85.46210427937612,43.07261388915164,0.007952874604843783,0.9887930934788335,0.001247229470625013,0.12259661260611224,128.53471816852777
21,5,1,0.03948008291539132,0.049400966958951596,0.04458473348452713,0.0019877984598863146,-0.0008446467167682141,0.0025335761033907114,0.17512040498431525,-6.027239075154286e-05,0.005711624519415734,2.025361655303244e-05,0.00225718950591654,0.17258682888092453,2.0,0.04875,0.07111109657630597,0.06690041511431485,0.075,0.09749999999999999,0.00852122061708413,2.1172992079002775,2.1002484987587033,0.046521425037768474,0.002164242987544711,-0.001248844747595684,1.9844768211597108,2.1634828136794395,-0.0015072072182331735,0.0010845224951562666,-1.368573974610034e-05,5.1901553155937054e-05,0.1790059925197287,3.5959770315027724,3.605903409897622,0.07402414479204794,0.005479574012194079,-0.001952151506058286,3.4826873272195966,3.7616331214191696,-0.0013986291517222194,0.005383612462956335,-1.1306947736978528e-05,0.0020735375875405968,0.278945794199573,2.0,0.04875,0.062437203124910745,0.05640563654777364,0.06,0.08249999999999999,0.006075888145742463,74.08360128617363,809.8958333333334,211.25875742038616,220.9708691207961,333.6586953759785,1.0,1.0,125.0,218.74999999999997,136.21559198564606,93610.54130016975,1.6059101370939322,0.41177681696520485,0.0,123306.05778098127,0.0,1.81682888888558,-0.21010553549627095,16.404543097670015,269.1090342433129,-85.46210427937612,44.812533904130085,-0.002975233304275961,1.0744279949526985,0.00014638394788270894,0.13288329202440993,130.2746381835062
22,5,1,0.018874916606815395,0.02523277678359665,0.022043338062712643,0.00048590875294703595,-0.0003294273602319605,0.0016637934212336307,0.11028308324643649,-0.0009344846667364325,0.003156694132569156,5.283733378142593e-05,0.0010115321500243834,0.10861928982520286,1.0,0.06,0.041741711110216184,0.03640809748807003,0.06749999999999999,0.09,0.0032767287739263024,2.0764904305285743,2.0527385735008408,0.06735857904470606,0.004537178170921915,-0.0018733861089464464,1.9414878707358791,2.1289987718710335,-0.0015682075958246787,0.0011164894611815674,4.538645020545999e-06,6.500613344631734e-05,0.18751090113515434,3.5673420150266972,3.538769012198208,0.07458078836309802,0.005562293992861217,-0.0020606053703508312,3.411743064400849,3.6894744400996755,-0.002336181236379466,0.0031331564050898417,5.197326704842557e-05,0.0010352343792423154,0.27773137569882644,1.0,0.045,0.021374053654128033,0.0170438584516992,0.03,0.045,0.000766973630326464,85.09695290858726,705.078125,199.2474703562366,135.5418091632615,264.0116445111844,1.0,1.0,171.875,95.84253239363514,225.1437257967119,67790.36960365041,0.4256948846985585,0.17733640716439084,0.0,102745.25661307944,0.0,1.464605093840738,-0.3290271344020397,15.77547043264799,248.865467371351,-85.46210427937612,44.812533904130085,0.011720958800108212,1.0527876280160562,0.0005774821379347289,0.13117037246045837,130.2746381835062
23,5,1,0.027799809211149433,0.03758288637043215,0.03847122773528626,0.0014800353634602586,0.0005462721675083022,0.0016637934212336307,0.14556012167196145,0.0003491459103652911,0.005277015987909478,-2.976649386825466e-05,0.001890046250847899,0.14389632825072782,2.0,1.53,0.03438528342833702,0.07075379883519256,0.06375,0.105,0.007944334397902056,1.983176314334902,2.0083255873702637,0.06615199442086601,0.004376086365858288,-0.0018164137531775473,1.940178623514422,2.1171780311971737,-0.0013764215466976583,0.0013483627065762691,9.796856833960143e-06,6.584363646664912e-05,0.17699940768275169,3.500798699038344,3.508928237048119,0.061797362397249,0.0038189139992569243,-0.0011886925356769831,3.411743064400849,3.610067010550872,-0.0009515790169225675,0.005291701202197704,-1.7948725609463294e-05,0.001786315530280339,0.19832394615002302,2.0,1.5225,0.020935245686940718,0.05744674230183566,0.045,0.08249999999999999,0.006254464384281559,66.39769452449568,903.6458333333334,58.752677982700405,19.487798889447614,90.6609124246313,1.0,1.0,46.875,13.779954745128078,52.85881023485532,2288.310996715474,0.2606936229533505,0.18453589223103892,0.0,2667.1175180946757,0.0,0.18642842151370603,1.2901906651245827,26.362256290439284,694.9685567228055,-64.22216866686794,145.85216822154345,-0.007704101828343176,1.1456357801501176,0.0002602376401821965,0.13498792013420458,210.07433688841138
24,5,1,0.03716975089806116,0.04744383924060348,0.04175858466863272,0.0017437793935273674,0.0007473009260754702,0.0016637934212336307,0.14556012167196145,0.0007127774183466892,0.00650567374937049,0.000117900860729851,0.00221318557594191,0.14389632825072782,3.0,1.0450000000000002,0.037183539795630306,0.06742086118542816,0.06,0.09999999999999999,0.007118872508511683,1.9622804429587257,1.974675225842973,0.03656477318343059,0.0013369826379557247,-0.0006505065296988095,1.940178623514422,2.0750859710091607,-0.0007385879229649783,0.0017032790858974634,3.359443276010759e-05,3.708536382947023e-05,0.13490734749473865,3.490135097829836,3.4866949953138175,0.04127140600986218,0.001703328954030888,8.777764390053403e-05,3.411743064400849,3.5653359538071907,-3.0293748114044542e-05,0.006602977151594716,0.00013143202342574638,0.002050387635822377,0.15359288940634164,3.0,1.04,0.028512210969259044,0.06017868731419732,0.05249999999999999,0.08999999999999998,0.006467133129716595,79.01234567901234,759.375,157.99030824705673,97.0205000531102,229.816786176148,1.0,1.0,93.75,159.08879530522148,149.1439694091287,74540.9911856685,1.0666793698430566,0.3953089998682303,0.0,67292.61025586436,0.0,-2.1481259113141,0.7932863631858866,25.91964539716259,671.8280175146518,-64.22216866686794,145.85216822154345,-0.009579415023948913,1.0622709084711037,-0.001410850934814469,0.12225565318336096,210.07433688841138
25,5,1,0.06574606534255814,0.07474988464053414,0.05667842397249578,0.0032124437440059837,0.0009575281854292514,0.0016637934212336307,0.23109013069033066,0.00040428509469761715,0.008832824480208263,0.00010054230344905847,0.002924155782205094,0.22942633726909703,3.0,2.025,0.05815211557553638,0.11684109765909456,0.06,0.105,0.012490037825687009,1.9622804429587257,1.9651343467331976,0.019604907127660495,0.0003843523834841932,0.00040172468872304106,1.940178623514422,1.9964502206756187,-7.521988452960279e-05,0.001188778460170265,-2.033107888905113e-06,8.195230996877073e-05,0.056271597161196674,3.5006981304295666,3.5031266792706464,0.06353671730184207,0.004036914445494198,0.0012695723664162772,3.411743064400849,3.6796724791127904,0.0002552756857397254,0.008654168428157343,9.988280204167588e-05,0.0026777267210918144,0.2679294147119413,3.0,2.025,0.05231635660340691,0.11509644123324092,0.0625,0.10749999999999998,0.012119881659728082,73.5632183908046,815.625,169.27003204938552,15.625,125.97277731716484,1.0,1.0,109.375,88.38834764831844,143.63106492851745,39883.50048502667,0.6153846153846155,0.2453385672227674,0.0,19528.25988141913,0.0,-2.446260218796947,0.3983308797270283,24.487735858621715,599.6492074816277,-64.22216866686794,145.85216822154345,-8.488083524232544e-05,0.8889260544282982,-0.0001906584763462465,0.09903737575469099,210.07433688841138
26,5,1,0.08003466281689639,0.08967416947963303,0.04518775120915687,0.0020419328593406583,-1.4574610530315743e-05,0.003947873331230315,0.23109013069033066,0.0006876152648893505,0.009021447592419053,-3.582379299905727e-05,0.0030256823018886,0.22714225735910035,5.0,1.239,0.04855366902381558,0.08337495666338032,0.056249999999999994,0.09375,0.009762041013070207,1.9571455735372378,1.9536093464092315,0.03650064222856127,0.0013322968830974302,-0.0002931580732337989,1.845375242805702,1.9964502206756187,-0.00081513730260712,0.002228582060969966,-2.889456203749863e-05,9.22456829441128e-05,0.15107497786991675,3.507522811541633,3.506551175404864,0.06181336465852522,0.003820892050407815,-0.0002889158595682916,3.398404203890632,3.6796724791127904,-0.00011890434938854332,0.008949832989663264,-6.0189279523707263e-05,0.002774775280865202,0.28126827522215825,4.0,1.528125,0.044111706873734224,0.08970855344353079,0.054375,0.09187499999999998,0.009242291258133065,76.29139072847681,786.4583333333334,142.54096024379174,38.97559777889523,155.98936595699936,1.0,1.0,101.5625,95.47032697824666,122.81068877657914,36834.4720752841,0.7773779947764085,0.21204410517387615,0.0,42821.67574865668,0.0,-2.3499484484010917,0.2075213810369174,24.402313074300388,595.4728833761716,-64.22216866686794,145.85216822154345,0.0002358755908487951,0.8870400956842254,-0.00042026083577164015,0.09855424267639847,210.07433688841138
27,5,1,0.0765612910673777,0.08531958353360194,0.045886825082573815,0.0021056007161587256,-0.0002238529177309044,0.018667823745582013,0.23109013069033066,0.0009819375977572682,0.00914442374837965,-1.2591407046039285e-05,0.0030707997853345716,0.21242230694474865,5.0,0.6495000000000001,0.045246216774353844,0.06451968197754758,0.048749999999999995,0.076875,0.006751109546235865,1.9571455735372378,1.924694910496009,0.06664998363417106,0.00444222031843527,-0.0016305019299987756,1.8172319115706,1.9964502206756187,-0.000846165225101451,0.0024687269782038383,2.0071598504666408e-05,0.0001534512808040489,0.1792183091050188,3.4788362585810866,3.475382122666602,0.08723630559441221,0.0076101730137616746,-0.001735415997708507,3.3067155536073,3.6796724791127904,0.00013870570578066732,0.009584208562716733,1.0757288603423695e-05,0.002820132693798583,0.3729569255054903,3.0,1.0375,0.0519834632583945,0.08699486254071702,0.0525,0.0825,0.008409069964765202,89.15422885572139,672.9910714285714,125.34331838962727,102.88798520721456,238.9143740443425,1.0,0.9,62.5,168.92352189674475,83.59009921934535,44360.3374218705,2.020855621351513,0.3186404673393521,0.0,44289.52509775515,0.0,-1.696219132960633,-1.365556133229255,4.612975351821148,21.279541596509443,-13.40077046521729,14.806201698619502,0.00692516843276765,0.328835535213047,-5.248214214616763e-06,0.04908151277556915,28.20697216383679
28,5,1,0.07476085430260015,0.08296196286142837,0.049802149070058185,0.0024802540519962973,-0.0007375756529853549,0.01669399996059134,0.23109013069033066,-0.0005758311122558271,0.008779776186961064,1.3930937892578087e-06,0.0028421301639205694,0.21439613072973931,5.0,0.648,0.05718720541204621,0.08287278462730609,0.058124999999999996,0.08625,0.010390236619541436,1.909255556780364,1.908704367686359,0.06313517266041224,0.003986050026860066,-0.0010808142187856437,1.8172319115706,1.9964502206756187,-0.00030449831076614366,0.0030436026702064492,8.506032655887046e-06,0.00016041204902888641,0.1792183091050188,3.4440314673109773,3.4582457281084316,0.08627069536700005,0.007442632879105724,-0.0017007176507744543,3.3067155536073,3.6796724791127904,-0.0008212208646312854,0.00886701338501721,8.222946670960462e-06,0.0026606737867341727,0.3729569255054903,3.0,2.0124999999999997,0.07310016930218784,0.14039649782787564,0.0525,43199.64,10365.13086480851,90.94736842105264,659.7222222222222,127.74286207741079,133.95647030845504,297.4911369478089,1.0,1.0,62.5,210.2854505264808,62.00979635307635,40965.60782165869,3.3911649915626336,0.33704078193461406,0.0,24039.754105645436,0.0,-0.062485122705609235,-0.1885771794118662,4.592861980011388,21.094381167434122,-12.548977352857117,14.806201698619502,0.003027339281782809,0.363669011174081,7.02907880349518e-05,0.05345569363764614,27.355179051476618
29,5,1,0.07189927708750335,0.07135526579372369,0.03373440822075796,0.0011380102980047423,2.828557796995906e-05,0.01669399996059134,0.16638413150888554,-0.00011711195781684688,0.007097942602642167,-9.172352428630549e-07,0.002276303398144539,0.1496901315482942,4.0,0.796875,0.052641194429828425,0.067279213664861,0.057499999999999996,0.08249999999999999,0.007588469400700561,1.909255556780364,1.9034581969040583,0.05668377189793562,0.0032130499965771966,0.0008041558634855042,1.8172319115706,1.9807175837322712,5.688185876529713e-05,0.0030412737003022326,2.9562774989241407e-05,0.0001422021099592088,0.1634856721616713,3.4440314673109773,3.442651846473412,0.061471456707761295,0.003778739989774171,0.0007761449969983904,3.3067155536073,3.5574098507898473,-4.738299956966359e-05,0.007382762230584227,8.009037534169778e-06,0.0021995652257809665,0.2506942971825472,2.0,3.0,0.08600237099297203,0.12913439105250046,0.11564972003974475,310.1418945611265,60.86553640372271,90.14084507042253,665.625,70.29513674501246,7.8125,133.04208098380002,1.0,1.0,31.25,93.91261937633834,5.524271728019869,1629.854587128484,17.000000000000103,0.30066145520144316,0.0,0.0,-0.06128661115734346,-0.03029348332880334,-0.2789995839530436,6.4222047042871155,41.24471326376756,-40.326251769657055,22.5038050168409,-0.01207512464529756,0.5589619225516312,0.0002601905640534827,0.0796985583114091,62.830056786497956
30,5,1,0.06768339373132809,0.06879116242523496,0.037232851057937714,0.0013862851979025738,-0.00010376278671298092,0.01669399996059134,0.16638413150888554,-5.064069556763098e-05,0.008095299987003595,0.00023262278775286563,0.00281545003194884,0.1496901315482942,3.0,1.04,0.07576018088488269,0.08712104623532922,0.06,0.08249999999999999,0.008153665701352614,1.9513065648897068,1.922350341758189,0.06451166892718967,0.004161755427771329,0.001764794355066346,1.8172319115706,1.9891982818822185,0.0012146847520206616,0.0017309927917692031,2.9451064847732523e-05,0.00012867126971571356,0.17196637031161854,3.470080099182648,3.4576671644927814,0.06790835517904016,0.00461154470312267,0.001546218916610816,3.3067155536073,3.5665370047205176,0.0010790739413750379,0.008075955908821235,0.00023066409880474295,0.0026809139296087485,0.2598214511132175,3.0,3.0,0.07233547835076119,0.10470707251985993,0.0375,0.06,0.003351146127274731,78.97172236503856,759.765625,186.34695921582508,180.57224815999703,316.8961613578387,1.0,1.0,164.0625,185.82877890532575,39.32205435036852,22956.14952957731,4.725815626252604,0.16463615409944024,0.0,99282.53727587781,0.0,0.8510596591469026,0.3844517928829764,8.681363453269478,75.36607140776295,-40.326251769657055,26.215289708236316,-0.0008083034691563462,0.7153983202542924,-0.0007708324971941815,0.09810349195719258,66.54154147789338
31,5,1,0.07198234086836025,0.07907585971135048,0.04240696409266501,0.0017983506035565797,0.00023337102824339516,0.01669399996059134,0.17610577886378292,-0.0009381705141281593,0.007999300904641921,6.0368310579376374e-05,0.0026119294395574397,0.15941177890319158,2.0,1.52625,0.062397773467984696,0.06081257089660456,0.04875,0.06749999999999999,0.004370236225685131,1.9781746324570957,1.961313543606976,0.03661627277979797,0.0013407514322845736,0.0008487213348154427,1.8523837018604603,1.989218118605867,0.0009731486444516528,0.0015865948797919491,-4.755104844047925e-05,4.930384977442267e-05,0.13683441674540675,3.5002966710697145,3.5037964916439193,0.05428502554577664,0.002946863998505622,0.001008520249868218,3.4136602321877874,3.6192967887521172,3.006791030050193e-05,0.007666231043576033,2.256446730578195e-05,0.0025066071377335803,0.2056365565643299,3.0,3.0,0.04483602795621996,0.09710119871243779,0.04875,0.09375,0.010912392149444282,-1.0,-1.0,-1.0,-1.0,-1.0,-1.0,-1.0,-1.0,-1.0,-1.0,-1.0,-1.0,-1.0,-1.0,-1.0,-1.0,0.3174797539705481,0.014825023125606157,-3.4282378019720454,-3455.261539486689,-116.60878637191013,-107.11370619256562,-0.002410765630198367,-2.447805115184824,0.0025183622742384624,-0.3668529438631208,47.57072096002574
32,5,1,0.07731298823240662,0.08979707726051285,0.04487971854039363,0.002014189136264952,0.0003511355505200285,0.01727080713611338,0.17782853190745512,0.0006706754824491144,0.008315035514392171,-0.00012239657124632277,0.002722873933716203,0.16055772477134175,2.0,1.52625,0.058537300898937494,0.07978525241510585,0.0375,0.0525,0.0022638030564966073,1.9781746324570957,1.9594486227976873,0.04483497415528379,0.0020101749075049657,-0.000769051438875473,1.7937893293579126,1.989218118605867,-0.0013518631995896183,0.002972662772170343,-9.415716411707899e-05,9.47332771776569e-05,0.19542878924795448,3.501135450661361,3.5121599675121655,0.04511321584978229,0.002035202244309048,-0.00038850362056499523,3.404741783225992,3.6192967887521172,-0.0005745786039029551,0.008236009756692558,-0.00016817765130822115,0.002582728794655686,0.21455500552612516,4.0,2.26875,0.04047749373730447,0.09682622223310344,0.04750000000000001,0.085,0.008139854804505423,57.45635910224439,1044.2708333333333,170.3093144452339,26.55739329996242,132.88907106430284,1.0,1.0,140.625,18.77891289304161,158.40527422651616,9345.229210947442,0.11854979567276382,0.15969338869370808,0.0,23102.041661498628,0.0,1.3575402823515006,-1.3533571035717746,28.767117085171567,827.5470253919698,-94.26094458495749,104.1903955003889,0.03208099210139569,1.7353225316235286,0.002771904336516845,0.17352996892631994,198.45134008534637
33,5,1,0.09335015930929166,0.12811519941387517,0.10900911378826846,0.01188298688890366,0.001833012391876066,0.01727080713611338,0.5322582851086469,0.0038857331573958695,0.012629775831269613,0.00010015015836669572,0.0037355543155621787,0.5149874779725335,1.0,3.0,0.0568979345609697,0.1164504466112287,0.06749999999999999,0.11249999999999999,0.013100675243763227,1.9673029503865882,1.8852400163302196,0.1330147689524079,0.01769292875946246,-0.0033960064341740995,1.612502253666928,1.989218118605867,-0.003047727035223219,0.003530482245198745,9.718302693427956e-06,0.0002526262637594147,0.37671586493893905,3.488184404840906,3.4783942975559126,0.09020731768072304,0.008137360163150888,-0.001461306187025628,3.2175789973517355,3.6192967887521172,0.0007876571254917253,0.012464261863794672,9.050703663701642e-05,0.003496401387783798,0.4017177914003818,3.0,2.025,0.032307164209516515,0.09091896649565372,0.05249999999999999,28799.8075,2575.4076614099044,61.494661921708186,975.6944444444445,154.17214079370365,129.8286129865062,318.305449804115,1.0,1.0,109.375,224.97829756445395,37.88861141556918,26779.29798395927,5.937887115915943,0.34180243819072575,0.0,85962.01333630108,0.0,4.035322286478962,0.6416650841252547,43.03031335194939,1851.6078671669536,-185.7513713461994,116.52287441728838,0.029067504643746214,2.4950436112663,-0.0006334021958291479,0.2527979319537013,302.2742457634878
34,5,1,0.15933671364953922,0.22830375800265953,0.17647582968871448,0.03114371846432016,0.003815353855500365,0.04057101863144715,0.5620470928683948,0.001240692159863482,0.01429221172455175,-0.00037854151610381705,0.003518115230103676,0.5214760742369476,2.0,3.0,0.04263222090474694,0.15099115175336766,0.08625,0.13874999999999998,0.02185671581576091,1.839581197471535,1.8230591757854397,0.13698006252418626,0.01876353752912998,-0.0030505711016944547,1.612502253666928,1.989218118605867,-0.0006755574646650063,0.006884709174944446,0.00010101299982019548,0.0003311974533800709,0.37671586493893905,3.4998243759690246,3.5140975976845774,0.11913537964518739,0.014193238683202929,0.0007110957938272017,3.2175789973517355,3.6966396940518873,0.0005241588552750014,0.012081647522186526,-0.0002578851802617771,0.003229927327984789,0.47906069670015183,3.0,28799.7675,0.03122242348589725,0.03315142632755504,0.035,0.057499999999999996,0.001969643930081537,63.1578947368421,950.0,186.56014445749125,76.9001201053823,387.9072121117798,1.0,1.0,125.0,270.0810867180036,23.86758174456166,20251.279318355828,11.315812787759397,0.42122999157540014,0.0,59579.76153197425,0.0,5.395321342046547,-0.37583554757432175,47.07669031110902,2216.2147706480655,-185.7513713461994,116.52287441728838,0.004921332262986256,2.8047889215905224,0.000751864594660114,0.2842839006028691,302.2742457634878
35,5,1,0.15339169122217566,0.22656194325496593,0.17803506836568972,0.03169648556797581,0.0008587128616675456,0.03031130207629344,0.5620470928683948,0.0005899469387437929,0.014897667863980623,-4.5196321601373955e-05,0.003913759088278884,0.5317357907921014,2.0,3.0,0.04263222090474694,0.15099115175336766,0.08625,0.13874999999999998,0.02185671581576091,1.839581197471535,1.8337684940870271,0.15224520238468645,0.023178601649154133,0.0014642091140916488,1.612502253666928,2.0762098981679036,0.0008982716955977447,0.00765608246755013,1.522412761583806e-05,0.00040536417013012214,0.46370764450097557,3.5529539421600482,3.5224932552221095,0.12224655569529107,0.014944220379361902,0.002173445824213201,3.2175789973517355,3.6966396940518873,0.001422019404677601,0.012119236330413277,-6.150460560656693e-05,0.0035514436070036228,0.47906069670015183,2.0,0.06375,0.03457468098801986,0.03817267781331268,0.041249999999999995,0.06375,0.002434515119611411,63.1578947368421,950.0,186.56014445749125,76.9001201053823,387.9072121117798,1.0,1.0,125.0,270.0810867180036,23.86758174456166,20251.279318355828,11.315812787759397,0.42122999157540014,0.0,59579.76153197425,0.0,6.871412847123317,0.031057280154757668,53.65043418260904,2878.3690879824644,-185.7513713461994,131.2948439499055,0.0152433377396289,3.204060586623431,-0.0007872277639261837,0.3211984188505864,317.0462152961049
36,5,1,0.13861219784552709,0.22884715700017935,0.17931326120450744,0.03215324564379591,-0.002093480342013577,0.03031130207629344,0.5620470928683948,0.0017672520500109654,0.016583146618875288,0.00019956785658671675,0.004292383079959678,0.5317357907921014,2.0,1.5225,0.07299627158344715,0.143785811849417,0.08625,0.1275,0.019898167700029026,1.908058989215637,1.866973916620682,0.17413287236451425,0.03032225723791621,0.00434574074647108,1.612502253666928,2.0762098981679036,0.0015031445671268814,0.007101380764450798,4.2119731256228436e-05,0.0003942405799500466,0.46370764450097557,3.571689760480142,3.5553654381977924,0.12386261285595214,0.015341946863503481,0.0021062265709386892,3.2175789973517355,3.750445317317689,0.0029872997603108465,0.0132343938500569,0.00020100789813535708,0.003929445738752259,0.5328663199659536,2.0,0.056249999999999994,0.07487185910519223,0.08121455706729197,0.045,0.07125,0.006273779059690001,64.53781512605042,929.6875,230.30317145286992,265.625,386.85682509812335,0.5,0.5,171.875,198.87378220871648,187.82523875267668,117349.53027325154,1.0588235294117647,0.26903416733925206,0.0,0.0,-0.2721057094350443,8.61551019295868,2.072452081945617,54.633791097995314,2984.851129739392,-185.7513713461994,131.2948439499055,-0.03883420746986554,3.220824704512061,-0.002385555683141687,0.3295675163752674,317.0462152961049
37,5,1,0.24515824930743707,0.23908219733192487,0.1627241499994436,0.026479148993041417,-0.001843754079866794,0.03031130207629344,0.5620470928683948,-0.002500019469176895,0.013338252000305837,-0.00024364896131710446,0.003795809582192738,0.5317357907921014,4.0,21600.55875,0.08965377951895649,0.17944584919372414,0.075,28799.8025,8970.264642571576,1.9526110155051046,1.9285125193455281,0.13122611688162472,0.017220293751829832,0.0018677979787635253,1.616712285814978,2.0762098981679036,0.0023149606530722547,0.006168743814878826,-2.2132415311762466e-05,0.00032125280456544997,0.4594976123529255,3.6248734387206607,3.6227090589619277,0.05056774266143695,0.0025570965978733108,2.643425797571961e-05,3.5468446543490244,3.750445317317689,-5.913152598159277e-05,0.010310130102292404,-0.00021105783303824178,0.003414795833934586,0.20360066296866464,4.0,0.06,0.08121016377890244,0.09304045504148017,0.048749999999999995,0.073125,0.007976414781285487,53.333333333333336,1125.0,55.242717280199024,0.0,15.625,0.0,0.0,15.625,0.0,0.0,0.0,0.7925409378412764,0.22232103156958646,0.0,447.2138965210337,0.0,2.292580296306739,-0.3953087627963773,46.114768313292,2126.5718565885995,-129.42258485387353,131.2948439499055,-0.026406097918927826,2.733433054049157,0.0007177831134445999,0.2750389015252168,260.71742880377906
38,5,1,0.11376327736889455,0.14850426432983527,0.09217794593989506,0.008496773717698218,0.00043981194297728184,0.03031130207629344,0.3360260919541601,-0.0015986960928193476,0.012373210157685952,0.00017741059995899055,0.00379549614270765,0.30571478987786666,3.0,1.0325,0.11008287027576726,0.1354377856478375,0.048749999999999995,0.07125,0.005708381213471324,1.970862661474175,1.9781653303389797,0.06270816607122541,0.003932314092016385,-0.0011473877271671994,1.8928011498151802,2.0762098981679036,0.0008570935515265591,0.004611633880401667,-4.244941812653012e-05,0.0002657217628513085,0.18340874835272336,3.5709585109506197,3.5841891924560954,0.06804962158641464,0.00463075099805423,-0.0006645464479841785,3.4743405504775486,3.750445317317689,-0.0006710472361526795,0.011039557836001915,0.00014675441117093698,0.003732534075475959,0.2761047668401404,4.0,0.796875,0.07274870891175533,0.08696095626964817,0.046875,0.080625,0.007713541157394996,-1.0,-1.0,-1.0,-1.0,-1.0,-1.0,-1.0,-1.0,-1.0,-1.0,-1.0,-1.0,-1.0,-1.0,-1.0,-1.0,0.31941168002969317,0.014655607449830771,-5.827615198666393,-3720.615967246385,-112.59487896722794,-122.43027211818512,-0.00240512988146256,-2.5047858158605347,0.0025174728196269303,-0.36233828830947845,31.570454012581223
39,5,1,0.18649608030692355,0.1879846965329034,0.10779385831304751,0.011619515890013362,0.0008306712789485088,0.031525683060703066,0.4128210832318674,0.000737398353710383,0.017654091138437248,0.00018762334597776482,0.0053231607681220325,0.3812954001711643,3.0,1.0425000000000002,0.16684369220673315,0.22533463904286222,0.0675,0.09374999999999999,0.02620838877903869,1.9864955743657517,2.003966436826757,0.09525108454557027,0.009072769107107375,0.001072984120592673,1.8928011498151802,2.2509090351145886,0.0014980109835819897,0.004954343759128676,7.608400756086524e-05,0.00014392013894757658,0.3581078852994084,3.6228853679076805,3.64510268110094,0.1365977430412337,0.01865894340395891,0.0017850481514355167,3.4743405504775486,3.929934301314751,0.002071157309279046,0.017141031811407803,0.0002911739925103796,0.005067689242941399,0.45559375083720255,4.0,1.5318749999999999,0.10676346664850156,0.16559055060067163,0.04499999999999999,0.08,0.0068602855449317,58.85057471264368,1019.53125,237.0614268859181,265.625,386.85682509812335,0.5,0.5,15.625,198.87378220871648,187.82523875267668,117349.53027325154,1.0588235294117647,0.2453385672227674,0.0,206133.22871361932,0.0,-2.7187676955015916,0.166270144013104,44.35657625422261,1967.505856996665,-132.20671256560425,110.05160293049795,-0.05525593153767334,2.3481757744701937,-0.0008814436545443616,0.22864135325050122,242.2583154961022
40,5,1,0.21063478308627473,0.20206035498765113,0.10052750053730246,0.010105778364277347,-0.0007303065497646637,0.031525683060703066,0.4128210832318674,-0.0016523364020483928,0.017260426241168487,0.00015609098979856885,0.005312334981991444,0.3812954001711643,3.0,0.065,0.15058197300935758,0.1809748618314062,0.0575,0.08249999999999999,0.020045407817230448,2.0110988738228737,2.0816193317964045,0.17730061035127762,0.031435506430935574,0.00477907044369607,1.8928011498151802,2.384229050859388,0.003456410456947274,0.004205725996438259,3.582648018702848e-05,0.00019725462717081206,0.49142790104420797,3.6979618255977433,3.730850353029741,0.18100446565323844,0.03276261658641437,0.0037759411989595516,3.4743405504775486,4.034185524442461,0.001671833826754195,0.017266398063112733,0.0001689229036702174,0.0050276416685328925,0.5598449739649123,4.0,2.26125,0.10501485163287594,0.16814705715780875,0.0425,0.0775,0.006703336668503891,-1.0,-1.0,-1.0,-1.0,-1.0,-1.0,-1.0,-1.0,-1.0,-1.0,-1.0,-1.0,-1.0,-1.0,-1.0,-1.0,0.3199880813097826,0.01460936079553661,-4.058778494606784,-3559.6692079324193,-114.7431448140535,-119.82829062968975,-0.0024689780655113708,-2.598586270054555,0.0025141147638288635,-0.38497010598547393,36.42163192510557
41,2,1,0.022966631054474926,0.03684555457029725,0.03353973969357229,0.0011249141387125886,8.725746947290514e-05,0.002804594233497792,0.1261404740139917,-3.20212341842653e-05,0.006484224844586546,1.6692674216353993e-05,0.002246937155971501,0.1233358797804939,3.0,0.0525,0.0635669619995894,0.0723769413626852,0.07499999999999998,0.0975,0.01005135234415189,0.6250207677379191,0.6244768853127535,0.030818108887890387,0.0009497558354258684,0.0008496609864766419,0.5844435742119745,0.664286805326715,0.000483710002071915,0.0008267114216112697,-2.0702488391532993e-06,4.516330206532515e-05,0.07984323111474056,0.6113325434894075,0.6091292036559884,0.01593323301329886,0.0002538679142560767,0.00030810267854873026,0.5830820620907533,0.6448043745970196,0.0001623308406990871,0.0022392769578196752,2.2046478416201432e-05,0.0007444940526343479,0.06172231250626625,3.0,0.065,0.022989280106234133,0.029947095704752402,0.10125,0.13499999999999998,0.00557706162086799,66.71814671814671,899.3055555555555,157.8238635744932,133.17047345414073,248.13759413881647,1.0,0.8,46.875,172.30060940112776,149.60886504482278,80983.0286080091,1.1516737951959366,0.37082818294190356,0.0,149074.5404973816,0.0,0.2036397969416977,-0.14934323087129542,10.722009575355667,114.96148933401861,-39.333275846497,31.76585142226433,-0.005650573831069443,0.7131330161337439,-0.0003459491345281987,0.0749914442023221,71.09912726876134
42,2,1,0.022223066990246988,0.03680260114731245,0.033532830875555975,0.0011244507465286403,-0.00048043889708095387,0.002804594233497792,0.1261404740139917,0.00022862726527963842,0.006534715323868957,2.133491285618292e-05,0.0022615283417156628,0.1233358797804939,3.0,0.0525,0.0635669619995894,0.0723769413626852,0.07499999999999998,0.0975,0.01005135234415189,0.6396274234771331,0.6359175539691638,0.022765276284554072,0.00051825780431208,0.00032715451132726034,0.5886783290389459,0.664286805326715,0.00020757382534775334,0.0011089291088690288,-1.6383341634443095e-05,3.357586749495489e-05,0.07560847628776912,0.6116843525882627,0.6128613213570167,0.01226854686884834,0.00015051724227312842,-4.9445774298383574e-05,0.5830820620907533,0.6448043745970196,0.00017432619543637136,0.002255329272432665,2.6243839562824224e-06,0.0007293351954771197,0.06172231250626625,3.0,1.04,0.022989280106234133,0.023761573204036785,0.0675,0.09375,0.002901569436425897,65.36170212765957,917.96875,91.02484529477378,22.09708691207961,81.18988160479113,1.0,0.75,70.3125,50.32851065127002,118.35357349643061,18713.082260007744,0.4252386232578593,0.13625834582368168,0.0,6190.566914777056,0.0,0.5187730623189417,-0.03310959010268941,13.476368012066605,181.61249479665202,-69.37575367222519,40.16404842581768,-0.014823276161119388,0.8261323183117872,0.0017028401524858835,0.08423310766529536,109.53980209804287
43,2,1,0.017158343060938212,0.024552424013818807,0.025099652239550217,0.0006299925425463582,-0.00033609964896082076,0.002825927450961197,0.11188572480972471,-8.453482015509687e-05,0.004214133161254217,1.5131062559075548e-05,0.0014583496228679823,0.10905979735876352,3.0,0.0525,0.0375992830256194,0.04040399733241167,0.06375,0.09,0.004844623464591315,0.6396274234771331,0.6342971928748128,0.024744534762336682,0.0006122920006044884,-0.0005476520161464892,0.5876474219950341,0.664286805326715,-0.0003131662949157644,0.0009930439938985991,-1.570047506109414e-05,3.3760032351053574e-05,0.07663938333168097,0.6051811080077808,0.6083126721099129,0.014132362491043682,0.0001997236695782584,-0.0002884202762795211,0.5857070500722718,0.6448043745970196,-0.00012965691622555768,0.0015537739226462821,-9.523748891841766e-06,0.0005299002246156244,0.05909732452474781,2.0,0.06,0.017474064655575106,0.021768719011934223,0.075,0.105,0.0035139881418218364,70.78341013824885,847.65625,73.18357029373122,35.58763116853242,89.4181495489031,1.0,0.75,39.0625,62.68283803078599,71.33586862402213,14047.740559849162,0.8787001439788699,0.29511583296443855,0.0,3430.4699017168396,0.0,-0.4415759990502963,-0.5739191297260052,12.99680738916791,168.9170023111296,-69.37575367222519,40.16404842581768,0.018942778618327716,0.748685925388773,-0.0001643433591239119,0.07498297157664821,109.53980209804287
44,2,1,0.015483707514869504,0.017640538854271078,0.011598344568689325,0.00013452159673404517,-9.326069379268018e-05,0.002825927450961197,0.06947528522143019,-0.00037843568785298913,0.00233513265651078,7.884764464792499e-05,0.0008562542638464936,0.066649357770469,3.0,0.049999999999999996,0.021641494154911903,0.01801828472940263,0.056249999999999994,0.08249999999999999,0.0014621924718493987,0.6132249694843991,0.6192373326299271,0.03065213293759927,0.0009395532536242581,-0.0008638296108563314,0.5820377861486221,0.664286805326715,-0.0006595006976182385,0.0005349275233416042,-8.516806248985016e-06,3.4513527451287406e-05,0.08224901917809291,0.5994733005044938,0.6010799275401237,0.011846070096376081,0.00014032937672825562,-0.00031333011670629996,0.5856765233341821,0.6317014049226626,-0.00034393140957791657,0.0008896741694025336,2.24343321622876e-05,0.0003682625124496729,0.046024881588480504,0.0,0.0,0.0,0.0,0.0,0.0,0.0,-1.0,-1.0,-1.0,-1.0,-1.0,-1.0,-1.0,-1.0,-1.0,-1.0,-1.0,-1.0,-1.0,-1.0,-1.0,-1.0,0.1845910344913398,0.2729696646959452,2.3512820606420597,204.7176810494439,-49.48429856309667,41.0552912177518,-0.0138050342047859,1.056905044364906,0.001592725574143914,0.0769905567064665,90.74564059451222
45,2,1,0.01512612968076163,0.020202580852159455,0.01643638637549025,0.00027015479708440156,0.00026841749939796625,0.002825927450961197,0.07073069063838436,0.0003090822508699148,0.002702711520847725,-2.3941271758749693e-05,0.0011790668818864652,0.06790476318742317,3.0,0.049999999999999996,0.021641494154911903,0.01801828472940263,0.0725,0.09749999999999999,0.0018087637035672786,0.5874618266655922,0.5953711755320567,0.026244128487693804,0.0006887542800785814,-0.0007311161583221597,0.5415821022829161,0.6514274092476245,-0.0009285697713563509,0.0005522273423006589,-7.756076011970989e-06,3.4199050509040915e-05,0.1098453069647084,0.5923739682408593,0.5940960259182375,0.007509669776528593,5.639514015250701e-05,-0.00015291646348981222,0.5796338131896603,0.6158202799565884,-0.0001997608831622403,0.001038692974600979,6.954596247826794e-06,0.00043399688981665306,0.03618646676692805,0.0,0.0,0.0,0.0,0.0,0.0,0.0,-1.0,-1.0,-1.0,-1.0,-1.0,-1.0,-1.0,-1.0,-1.0,-1.0,-1.0,-1.0,-1.0,-1.0,-1.0,-1.0,0.1845184623817912,0.27302555264708395,2.3531758983209077,204.82955234929102,-49.48392726480961,41.05524120479822,-0.013805315759992144,1.0574459919663797,0.0015922382198601476,0.0768008985106819,90.7445738427341
46,2,1,0.023481841836945225,0.02646252594251043,0.017970702245841984,0.00032294613920871016,0.0003243179528984153,0.002825927450961197,0.07073069063838436,-1.1752430945499851e-05,0.0030867312928908306,7.010777086616016e-05,0.0013767259943521016,0.06790476318742317,3.0,1.03,0.020644822515664896,0.030739301386515077,0.0775,0.1125,0.0038680813418624505,0.5818083037705988,0.5649497140049606,0.034848254613417014,0.00121440084960154,-0.0009425133640613723,0.48733614604540276,0.6126119238768403,-0.0010539639664874023,0.0006815688688273487,3.092403396711546e-07,3.893542418444761e-05,0.1252757778314375,0.5893206916455096,0.5861356156575549,0.009987022323630806,9.974061489270007e-05,-0.00020527217705321104,0.557071912373468,0.6034472814524561,-0.0003505045846061141,0.0014553954997368547,2.772517664132538e-05,0.0007188472729097782,0.04637536907898809,1.0,0.08249999999999999,0.002976115856883954,0.01583404551234535,0.075,0.1275,0.0020188408028240326,69.1891891891892,867.1875,143.98474944561548,76.84498270666407,118.22457773766841,0.75,0.75,85.9375,54.337608372045146,157.49019531733953,26884.62070150517,0.34502216638030053,0.1923076923076923,0.0,2130.168352694908,0.0,-0.6043110865492312,-0.38655956739994507,14.482733543096371,209.74957088032878,-37.223663179253755,37.63329437412999,0.01999989919760475,0.9548071439066427,0.0005096646369240834,0.10596466546152919,74.85695755338375
47,2,1,0.03329445429745743,0.03529894101858755,0.017503701384147544,0.0003063795621454086,0.0003167654275781659,0.006861844805489462,0.07073069063838436,0.0002970605236244905,0.003278363744311579,7.527954615678906e-06,0.0015247452043218983,0.0638688458328949,4.0,0.785625,0.022401028313826614,0.027675493183943092,0.0775,0.1125,0.0038680813418624505,0.540552802537231,0.53503599456747,0.04355775818287509,0.0018972782979178222,-0.0012232791265385711,0.4757449153518955,0.5872762313361505,-0.0009000714681375863,0.0008054388008781246,8.1747622028031e-06,4.622397335078111e-05,0.11153131598425498,0.581577129136622,0.57923135537787,0.01225545587464532,0.0001501961986953785,-0.0002964102936296971,0.557071912373468,0.5957687802634742,-0.0002003948867835138,0.0014869531225677583,7.116394763358412e-06,0.0007674565484834118,0.03869686789000626,1.0,0.08249999999999999,0.002976115856883954,0.01583404551234535,0.075,0.1275,0.0020188408028240326,-1.0,-1.0,-1.0,-1.0,-1.0,-1.0,-1.0,-1.0,-1.0,-1.0,-1.0,-1.0,-1.0,-1.0,-1.0,-1.0,0.18338647363868033,0.2731529397984908,2.4975859210539326,200.4772954061084,-49.485523466486484,41.05545736756176,-0.014236807808516692,1.0568694389176767,0.0015791266288215668,0.07783448056544863,90.7491911277175
48,2,1,0.03991049448766816,0.05540393880404683,0.06623319175638397,0.00438683569023793,0.0008129538389670989,0.007615066758367345,0.33491714584776655,0.0023406704181380624,0.011030831927812743,-0.00012974337714670697,0.003702519027296015,0.32730207908939923,2.0,1.52625,0.0216185656714193,0.03972290559328197,0.16125,0.20625,0.006679582141149248,0.5038176769795589,0.5139313710200858,0.03450649613980137,0.0011906982758461268,-0.0007393224247950694,0.4757449153518955,0.5815788213925753,-0.00040752150457051643,0.0014785517701313305,2.8560079162658302e-05,5.160149120521773e-05,0.10583390604067983,0.5703554612548846,0.5788698308296214,0.024940776692411386,0.0006220423420207311,2.230999699329774e-05,0.5554404125978801,0.6748232615249009,0.0006399846241858469,0.003977202007604577,-3.62466724631592e-05,0.001319791928865374,0.11938284892702078,1.0,0.08249999999999999,0.002976115856883954,0.01583404551234535,0.075,0.1275,0.0020188408028240326,65.45454545454545,916.6666666666666,126.83120481131168,72.54368894366728,114.46490091581204,0.6666666666666666,0.6666666666666666,70.3125,51.29613438435471,124.45628276404712,20056.323987234387,0.41216187118175057,0.36376864314296103,0.0,58475.64499470812,0.0,0.08747761639736792,-0.27158728263519644,15.789018950531231,249.29311942023432,-39.75781337626841,37.63329437412999,0.008816230440352336,1.087166570270406,0.00018656606225590447,0.12449122086487488,77.39110775039839
49,2,1,0.04913550814957862,0.10984182082750191,0.10742481359841717,0.011540090576654675,0.0023662717238565737,0.00791305640116408,0.33969700077125464,0.0011094145854586915,0.013182791419589548,1.4510994715173887e-05,0.004403097581024081,0.33178394437009057,3.0,1.0425,0.11545487947596918,0.15587169576741386,0.14625,0.17625,0.007403391978945923,0.5038176769795589,0.5202299763638195,0.047520657838671924,0.0022582129214201315,0.0008755624535539956,0.4757449153518955,0.6553413994287153,0.0009760109224554184,0.002293482834205617,5.619302129359997e-05,2.8190672128584434e-05,0.17959648407681977,0.5703554612548846,0.5988802425427355,0.04852632384929713,0.0023548041063268634,0.0010653717974156655,0.5554404125978801,0.7084316218285736,0.0006679876689711317,0.004583200027705141,1.4550585977224593e-05,0.0015591489224868543,0.15299120923069343,2.0,3.0,0.05515641346563438,0.08895242829172412,0.045,0.08249999999999999,0.005072071624821297,60.95238095238095,984.375,194.15280708761333,23.4375,212.2355891750957,1.0,1.0,187.5,149.15533665653737,193.3495104806966,90600.7402844957,0.7714285714285714,0.20329335230737952,0.0,21849.67462334314,0.0,0.11521063764472686,0.3229510248463575,17.79685708086746,316.72812195682235,-56.919133895476435,54.801649575387415,0.0023713398951398473,1.1310217241242253,-0.00031151355932009417,0.1210191387170614,111.72078347086385
50,2,1,0.1029044056393998,0.13329187783076918,0.10096384624429454,0.01019369824844155,0.00143872033791559,0.00791305640116408,0.33969700077125464,0.0004071857798350367,0.014270662514527703,-5.607798476435239e-05,0.0049420022092952175,0.33178394437009057,3.0,1.04,0.1394203578792584,0.17415989094054038,0.0525,0.075,0.007589301992579662,0.5329749590842421,0.5714553454076191,0.09673660516919233,0.009357970779660208,0.002651853930098018,0.4757449153518955,0.7563174702883877,0.0022527862399140787,0.0018200203212925732,2.146706070159978e-05,7.913794803891495e-05,0.2805725549364922,0.6466072577359223,0.6234304135655423,0.0536408340342821,0.002877339075893397,0.0013425299705229115,0.5554404125978801,0.7084316218285736,0.0008660376039210123,0.004802529346430343,-1.211974466927071e-05,0.0016336412733253046,0.15299120923069343,3.0,2.02,0.0495534606956863,0.07199892789465956,0.045,0.08249999999999999,0.005072071624821297,61.68674698795181,972.65625,161.57904593708153,172.69689849560123,276.25777703985096,0.8,0.8,70.3125,186.0097023679141,120.42405542498558,70371.8096101014,1.5446224735703495,0.3857032656209822,0.0,110471.93350730931,0.0,0.14988428040625645,-0.07133079514804486,21.976440945836174,482.9639566458248,-91.11836933240882,54.801649575387415,-0.0017490420568467954,1.1660798436583777,-0.0006324493643120136,0.11678579393002907,145.92001890779625
51,2,1,0.1268600999291577,0.14345745356341,0.09501111332602138,0.009027111655450079,-0.000387020100218747,0.00791305640116408,0.33969700077125464,-6.435913551141199e-05,0.014683024734312232,-2.4922752925098218e-05,0.00508609290147141,0.33178394437009057,4.0,0.795,0.1221462424813312,0.14603034089192374,0.049999999999999996,0.06999999999999999,0.00629236847664125,0.657668107419368,0.6432423568931992,0.10713852948388781,0.0114786644999699,0.0030292906594431815,0.4798102641495977,0.767808229000045,0.002398806896220839,0.0016203310729726872,-6.420802394889804e-06,8.269726079016218e-05,0.28799796485044726,0.6656679114052172,0.6503385841330009,0.043873439426570154,0.0019248786871169207,0.0008693477522913006,0.5554404125978801,0.7084316218285736,0.000765384169535185,0.00498974983193733,-2.0865721620026237e-05,0.0016811958640844094,0.15299120923069343,4.0,1.5318749999999999,0.04175762676870021,0.06028668551097777,0.041249999999999995,0.07125,0.0032905345632086203,52.96551724137931,1132.8125,242.1875,0.0,562.5,1.0,1.0,195.3125,0.0,0.0,0.0,2.790691222552537,0.22075055187637968,0.0,82640.94140731824,0.0,0.29401214545871435,0.4484347453681471,23.334632845776436,544.5050900471886,-91.11836933240882,54.801649575387415,0.0038268866844890542,1.1814562964395683,-0.0010572684555839368,0.10843779270060494,145.92001890779625
52,2,1,0.11277218430186962,0.13000325821693695,0.08663563780456116,0.007505733737803106,-0.0021349410848739894,0.011003793504644789,0.33969700077125464,-0.001374588062818943,0.010751035585249168,0.00021641433662073094,0.0039615044391003796,0.32869320726660983,3.0,1.035,0.08817768029069951,0.08800769240495493,0.049999999999999996,0.06999999999999999,0.00629236847664125,0.7570155841539516,0.7115772468703195,0.07694741563076436,0.005920904772253601,0.002005218667897129,0.5344741268623718,0.7892055529692765,0.0021433784980717584,0.0017632558952997463,-9.824363479140711e-06,7.99229874704466e-05,0.2547314261069047,0.6666958923989112,0.6684061115450037,0.015442228861901493,0.0002384624322233435,-4.509640214219033e-05,0.6416213770618167,0.7084316218285736,0.00025309814629227896,0.0037175631329225984,6.927714940508667e-05,0.0013435182657820439,0.0668102447667569,3.0,1.0425,0.029966335330297984,0.0415738471729676,0.041249999999999995,0.07125,0.0032905345632086203,44.72545757071548,1341.517857142857,206.85594353934098,140.625,356.9893643373707,1.0,1.0,78.125,99.43689110435824,232.01941257683575,72480.5922275965,0.4285714285714288,0.21301523058898714,0.0,37010.892564801856,0.0,1.321156186974327,0.07483973792600303,26.056299021228245,678.9307186836601,-91.11836933240882,54.801649575387415,-0.0006561167411063292,1.4192724979444364,2.0064071756766233e-06,0.1318123431596661,145.92001890779625
53,2,1,0.08138511676332891,0.08690147202480195,0.045962777457725174,0.0021125769116283693,-0.0006903472077538651,0.011003793504644789,0.2050328789875707,-0.001102931695633151,0.008775999841960069,9.97984046591484e-07,0.0033126422695349245,0.1940290854829259,4.0,0.05437499999999999,0.0781548065956261,0.0788406811247936,0.06,0.08249999999999999,0.006973225684202367,0.7676919110647975,0.7731293021996424,0.04826083106506357,0.002329107815090605,0.0012837601704144043,0.6599948154100208,0.8949494979236404,0.001995563207385048,0.0016313679449424994,-1.9187673264151978e-06,8.788061962798577e-05,0.23495468251361962,0.6742605139708016,0.6744488255523216,0.016875304238338013,0.0002847758931364689,0.0001950472410972611,0.646604790213359,0.7086933454868358,0.0003023886587889065,0.0031073797746865215,1.03445258063585e-05,0.0011312974444666938,0.062088555273476786,4.0,0.07125,0.02753266113639352,0.03570983021074425,0.0375,0.06,0.0015089975015959434,47.524752475247524,1262.5,177.71334010141163,0.0,31.25,1.0,0.0,171.875,0.0,0.0,0.0,1.703317070733671,0.15847860538827258,0.0,6262.051800314075,0.0,1.21258785042051,-0.3250084236347156,25.830442200738585,667.2117442856968,-91.11836933240882,62.507959420547536,0.007424124912442792,1.448477901832029,-0.0004231945260147674,0.1383391566770591,153.62632875295634
54,2,1,0.06540602090380065,0.07106284164432358,0.034539654344504615,0.0011929877222378565,-9.997087667597027e-05,0.011003793504644789,0.1511264702494432,0.00010465764948349345,0.007549218013158939,-9.451449642519438e-05,0.0027203746364888983,0.14012267674479842,4.0,21599.82375,0.06181187161204231,0.061926188799094624,0.0525,0.075,0.0060702439180954845,0.7901893135144891,0.8316268746948915,0.07661161364131834,0.005869339344726635,0.0020443079875871514,0.7577136980195155,0.9820814298755476,0.001878050296186369,0.0015799082959461741,-5.251177617295738e-06,9.330007163477944e-05,0.2243677318560321,0.6859920905005215,0.6885545656035902,0.027851134239563726,0.000775685678430199,0.0006413021786092445,0.648334274441323,0.7511431950773176,0.0006795534553511839,0.0026771467486019673,-2.8536816207501657e-05,0.0009649305812177707,0.10280892063599467,3.0,0.06999999999999999,0.022709342900594304,0.03175253997657871,0.052484851849165556,-1913.4192456737708,12.615346460454205,50.97345132743363,1177.0833333333333,116.81073693753022,85.9375,185.20733736140153,1.0,1.0,93.75,60.766989008218914,116.00970628841799,22146.847625098944,0.5238095238095235,0.141622999575131,0.0,10421.183266226599,0.0,0.06003118379799814,-0.42231715391709285,22.45331367678706,504.15129506819295,-71.7729129683356,62.507959420547536,0.0012376810057354137,1.3822243756084531,0.0011401718020675278,0.13152385566015587,134.28087238888315
55,2,1,0.0527251680634653,0.06084699817209219,0.03052540708467776,0.0009318004776852951,-2.2336446654404347e-05,0.011003793504644789,0.13988398553208886,0.00030019474244276026,0.007214146070271118,2.557674322142648e-05,0.0026976638962978978,0.12888019202744408,6.0,14399.903750000003,0.04801119567611934,0.051558537876406636,0.052500000000000005,0.0765,0.0047807867394254215,0.8971415181294915,0.8848792508274101,0.08577801305206928,0.007357867523160967,0.00238079065130035,0.7672918631276422,0.9837561064808771,0.0016899906459599814,0.0017790517049385535,-3.7852273016757604e-06,9.548828735331598e-05,0.2164642433532349,0.7105318286685303,0.7026100822052809,0.029877385528011502,0.0008926581659894311,0.000774277497769903,0.648334274441323,0.7511431950773176,0.0006641268053075069,0.0026023874706786127,-2.0902613986811353e-06,0.0010272351868964664,0.10280892063599467,4.0,0.8025,0.02207730383140938,0.031736587190380416,0.06,0.09749999999999999,0.0030896510610990886,-1.0,-1.0,-1.0,-1.0,-1.0,-1.0,-1.0,-1.0,-1.0,-1.0,-1.0,-1.0,-1.0,-1.0,-1.0,-1.0,0.17678755720467831,0.2912202058982828,3.1454207726887518,213.36344416933707,-49.49205898027867,41.05632436834276,-0.015320394744127021,1.0389915907890068,0.0015828805754452757,0.07896564256180301,90.76802179031074
56,2,1,0.055562398568741796,0.059942507810371366,0.027838108920673836,0.0007749603082793003,-0.0005034554542671165,0.016607092213981156,0.13988398553208886,-0.0010459993389275893,0.005725781947644263,6.621865784019824e-06,0.002281102735851616,0.1232768933181077,5.0,0.0495,0.03968436309101029,0.04078871027215114,0.052500000000000005,0.076875,0.0032326985082662407,0.9697251116733013,0.9347852470733564,0.061113951196183486,0.0037349150308094966,0.001471275175861502,0.7911730740597017,0.9841611705747728,0.0016217798942532034,0.0018101631034862253,-7.2209129964746306e-06,9.215546587082545e-05,0.1929880965150711,0.7215805899826144,0.7188199332061538,0.017192365474038546,0.00029557743059291266,0.00032032357065890323,0.6761882395239346,0.7511431950773176,0.00021014905161328054,0.0021789983080093295,1.5868580783455951e-06,0.0009297897679387034,0.07495495555338305,4.0,0.79875,0.015658970272866002,0.02335640225159391,0.0675,0.10874999999999999,0.0024092724903770116,-1.0,-1.0,-1.0,-1.0,-1.0,-1.0,-1.0,-1.0,-1.0,-1.0,-1.0,-1.0,-1.0,-1.0,-1.0,-1.0,0.1791926622658851,0.2736803877586517,2.870630147018426,213.6431576867987,-49.48941038688645,41.05597160663456,-0.015606840744409494,1.0420593147923451,0.0015965585567644285,0.07849263336660715,90.7595789656043
57,2,1,0.04817174002912309,0.06521391041460482,0.05620866979370344,0.0031594145599775896,0.00041811074607466843,0.005990664343652941,0.25132906452548526,0.0008689485012088081,0.008822243413746553,-0.00014536880250086518,0.002973321876023976,0.2453384001818323,4.0,0.793125,0.0635919161383578,0.09265229228591317,0.057499999999999996,0.085,0.004015794039014023,0.9775985337242841,0.9771979963155903,0.024996946934200695,0.0006248473560312456,0.0005829133498770011,0.8993335383353426,1.0283911766262583,0.0010990736139508896,0.0013812769330097529,-2.5585611235237615e-05,7.720976650366445e-05,0.12905763829091577,0.7264261955573476,0.7344225927208432,0.02309995075669669,0.0005336077249618119,0.0003285694500846947,0.7123703118502246,0.8097760846054165,0.0006491761867047543,0.003109948399621397,-4.885088795625163e-05,0.0011289395767276789,0.09740577275519191,3.0,2.0225,0.02490280925484119,0.04339079756860098,0.0675,0.10874999999999999,0.0024092724903770116,77.57575757575758,773.4375,98.30513587592122,57.527921964516985,132.88907106430284,1.0,0.6666666666666666,62.5,90.36120610884099,97.57809372497498,27700.283973270038,0.9260398790278188,0.21556369907307607,0.0,20773.938573376916,0.0,-0.5473489966473832,-0.4434661530123584,18.93254026675033,358.4410809521226,-55.31554158453163,60.13927874777955,-0.003529453465659538,1.212424029767223,0.0005487076069810408,0.12720343121379202,115.45482033231119
58,2,1,0.05218435949635107,0.07100861532684277,0.06023505765402988,0.0036282621705843038,0.0006603751253864515,0.005990664343652941,0.25132906452548526,-0.000276914037150802,0.009065993317039545,3.4881803827320495e-05,0.0029342496850304142,0.2453384001818323,4.0,0.7875,0.05861444416288048,0.08334926855888788,0.0775,0.1075,0.013849979875207238,0.9847665552286486,0.9985113258394923,0.025862620906422468,0.0006688751601493204,0.000657260798453,0.9689325301435475,1.0394684831632328,0.0003642237379760401,0.0008974906735013055,-1.655039633960895e-05,6.25057894234892e-05,0.0705359530196853,0.7318666022878482,0.7432519653824774,0.025477994819902473,0.0006491282200429772,0.0004351290468823213,0.7180486338882331,0.8097760846054165,2.6076740652613193e-06,0.003192619792907421,1.9115921968208595e-05,0.0010798297838782362,0.09172745071718336,3.0,1.04,0.02232298636422551,0.03660895381218565,0.08749999999999998,0.12,0.00566590225463013,77.46397694524495,774.5535714285714,171.94745689795317,43.322408228161784,66.75002926029322,0.75,0.25,125.0,43.05743688486055,246.97572608931375,33408.14156190904,0.17433873995086344,0.18450184501845018,0.0,73442.67356225387,0.0,0.9137899432505773,0.41809327096094423,19.372583066562626,375.296974670869,-81.67886782896105,60.13927874777955,-0.008381482729329781,1.2613040995576719,-0.0010737707112036443,0.13850889854002607,141.8181465767406
59,2,1,0.061074935500935706,0.07628952972417195,0.059789011764565136,0.003574725927783308,0.000287015521117093,0.005990664343652941,0.25132906452548526,-0.0002954693605860169,0.009261331834441734,-4.5064141072870034e-05,0.002830851404630323,0.2453384001818323,3.0,1.0374999999999999,0.08265175674570682,0.11595232408410251,0.0775,0.10499999999999998,0.014893628601365732,1.007248279775451,1.0062617162478324,0.023428119371616946,0.0005488767772907332,0.0004507375517729352,0.9689325301435475,1.0394684831632328,0.00034752808082926244,0.0010560148509556383,1.936153079304277e-05,8.974438685821233e-05,0.0705359530196853,0.7440324575242652,0.7476860262236538,0.024147094217557848,0.0005830821591516157,0.00024395125297131147,0.7180486338882331,0.8097760846054165,5.354119023231555e-06,0.0031505131085128786,-1.5533317756930704e-05,0.0009599215444987223,0.09172745071718336,3.0,1.0375,0.0269713863315378,0.03908912617288285,0.08,0.1075,0.005690423357756925,71.11111111111111,843.75,140.10319857162435,43.88619673529353,68.10779599282303,0.75,0.3333333333333333,62.5,47.2711845329983,170.79641051698394,25364.429411596513,0.276769191986606,0.07905138339920949,0.0,14020.31655804426,0.0,0.6814139186623285,0.37334673721852063,13.868548442493958,192.3366359018016,-81.67886782896105,44.48096176825791,-0.00043325847693780897,1.01377253776854,-5.177515599016057e-05,0.1216204493160404,126.15982959721896
60,2,1,0.07277957054400636,0.12093712245784145,0.1212520433519993,0.014702058017035117,0.0013859246929168196,0.005990664343652941,0.4967949786145151,0.0016025121461697655,0.019710877964780864,-0.00020748016175700936,0.005539296752729092,0.4908043142708622,4.0,0.796875,0.1386077083830252,0.20359498220752426,0.0775,0.10499999999999998,0.014893628601365732,1.0244392069412784,1.0321598157032916,0.03689890115634357,0.0013615289065456128,0.0006733719350356438,0.9853719398825246,1.1594254938947417,0.0014818664415744522,0.0023695555949744796,4.211574811869706e-05,0.00011583564603963688,0.17405355401221712,0.7529057782456526,0.7707690808090785,0.04965110182218108,0.0024652319121565938,0.0006811952031706998,0.7180486338882331,0.9171816168361003,0.0009812398595883487,0.006640087114558408,-5.3660758180365296e-05,0.00181767498840513,0.1991329829478672,4.0,1.5281250000000002,0.04300776410571505,0.07421004946480714,0.08,0.1075,0.005690423357756925,69.81818181818181,859.375,127.32217992164601,43.88619673529353,68.10779599282303,0.75,0.3333333333333333,62.5,47.2711845329983,170.79641051698394,25364.429411596513,0.276769191986606,0.0776156473144986,0.0,14309.979708861672,0.0,0.7246562532149068,0.24012948428015696,22.05773960774386,486.5438766030322,-97.67534806077646,87.87504719457519,0.0007849821016929344,1.3748999177766017,0.00016533373511667387,0.14733999606822104,185.55039525535165
61,2,1,0.09994644675598935,0.13120304566207389,0.11292253983407119,0.012751500002577394,0.0011473817114764921,0.012848391988011368,0.4967949786145151,-0.0008246575040114772,0.019310214852034335,-7.157122017124523e-05,0.005397245999025261,0.48394658662650375,4.0,0.061875,0.1266406351006846,0.16921592387257325,0.06,0.088125,0.017961725335023788,1.0385644851953697,1.0916722656439286,0.09679694164872035,0.009369647912545772,0.002320421330527135,1.0024228871187049,1.3106097071521368,0.002362313672245826,0.002845625996223078,2.1697710806596605e-05,0.00012809925852801045,0.3081868200334319,0.7598728411703419,0.7937416096696134,0.05599059944510367,0.003134947226222043,0.0011400683818733016,0.7337381850224988,0.9171816168361003,0.0005037984003040526,0.006485574069043099,-1.2019178526086888e-05,0.0017870625680104471,0.18344343181360157,4.0,1.528125,0.038758359651198004,0.06585693837094908,0.06999999999999999,0.1025,0.010283614036882696,67.5,888.8888888888889,125.09641343508208,86.28466519067177,117.1502917120324,0.7142857142857143,0.42857142857142855,70.3125,82.38164656262886,132.49088836234498,34289.910592136795,0.6217910346961069,0.31267588018260273,13503.75765256409,16787.304918644077,0.8044029531843876,0.5133959259549751,0.6970781506958235,20.574307552899132,423.3021312812823,-97.67534806077646,87.87504719457519,0.005963527618044503,1.208993744101998,-0.0005716001775895684,0.1202402490639623,185.55039525535165
62,2,1,0.115078976270309,0.15299137468103333,0.11979903513036642,0.014351808818166768,0.0011915595193061547,0.012848391988011368,0.4967949786145151,0.001992596448791834,0.022260803562417483,-0.00018151068956461704,0.007183137630612919,0.48394658662650375,4.0,0.06562499999999999,0.14034065058687045,0.1894493434949635,0.058124999999999996,0.08625,0.01941231081221024,1.162564090603795,1.174994647168623,0.14518244981436731,0.021077943734101285,0.004097323477104764,1.0024228871187049,1.426229482022379,0.003352036095915332,0.0024458097426806637,4.89017175308785e-05,0.00011166105094842556,0.4238065949036742,0.8463893116464825,0.8283614967248246,0.07029947949673922,0.004942016817512458,0.0017402587563270563,0.7337381850224988,0.9799729476655102,0.0017479019326958856,0.007456208425300497,-6.259995882291596e-05,0.0023469896911220544,0.24623476264301147,4.0,1.531875,0.043913230027910255,0.07601592050339318,0.08749999999999998,0.1225,0.012181602323870971,65.36170212765957,917.96875,77.10928265360901,85.89803386703458,135.01543121683042,0.8888888888888888,0.5555555555555556,54.6875,94.67776530858319,64.63371690620234,19224.586310000846,1.4648355353906282,0.09083477155054955,0.0,26142.964569689644,0.0,-0.15522872324632336,-0.15932644902140047,18.00731292296646,324.26331870563484,-97.67534806077646,87.87504719457519,-0.001490638947963778,1.0012666533427763,0.0002992647002681679,0.09350054930601952,185.55039525535165
63,2,1,0.1370656542401077,0.1660276132957192,0.11647738996245438,0.013566982372465668,-0.0005590179205966201,0.012848391988011368,0.4967949786145151,0.00022347847455595962,0.02283993536047446,-1.2949521829764937e-05,0.007221750238747064,0.48394658662650375,5.0,0.058499999999999996,0.15862646340061057,0.19249793306622182,0.058124999999999996,0.084375,0.022634690998612497,1.31250316210206,1.2951144237364995,0.15789650625340443,0.024931306687031387,0.0045406549539942455,1.0130180766230787,1.542437849930565,0.004433830607397973,0.0009760463261684218,3.0918210713539358e-06,9.5290518321423e-05,0.5294197733074864,0.878196997210181,0.8720125289635061,0.05937457851481448,0.003525340573811869,0.0013120169066841592,0.7337381850224988,0.9799729476655102,0.0015430500604455245,0.007593508905514631,-6.743288416575603e-06,0.0023710879454098477,0.24623476264301147,4.0,1.5318749999999999,0.05975654031554656,0.09523159447809293,0.10499999999999998,0.1375,0.01577598639575817,60.15665796344647,997.3958333333334,140.74551163407978,65.46773484362778,208.46350100197395,1.0,1.0,78.125,146.6679983367575,61.40534438828954,28293.808453720263,2.3885217125291165,0.33433634236041454,0.0,31567.036319229363,0.0,0.1866773253812411,-0.05620815828514705,18.2886441341163,334.4745042643466,-97.67534806077646,87.87504719457519,0.0003815224452037654,1.0155546050527957,0.00018879819671479154,0.09423566774786256,185.55039525535165
64,2,1,0.12809596842623108,0.14045905686799015,0.07260692836950057,0.0052717660472537875,-0.000310292279487377,0.03340989273195687,0.3669328005189655,-0.0003891653376874247,0.015434570235200286,0.00014574039159590327,0.005721423125131989,0.3335229077870086,5.0,0.054000000000000006,0.11080680693414942,0.1135356423179484,0.04875,0.06937499999999999,0.009018404650603443,1.4283896495890005,1.4180933805083125,0.12718683623099042,0.01617649131044878,0.0036378691437253573,1.1657026873128484,1.5826193960892185,0.0035023217739905115,0.0014777337165177186,-4.827113408972701e-05,5.101986087060992e-05,0.4169167087763701,0.9123539030086156,0.9040648023371621,0.04451993862389087,0.0019820249350750102,0.0010960419000576877,0.824688378345652,0.9799729476655102,0.001043377382738254,0.005138345749514486,4.811953989057131e-05,0.0018851553298599869,0.15528456931985823,5.0,0.648,0.03711220438280627,0.04954923394454105,0.10124999999999999,0.1275,0.009522620070566583,63.54609929078014,944.1964285714286,108.20713967447163,67.20566614877052,228.84091431057516,1.0,1.0,109.375,157.12644813374035,53.55980156563314,26438.579975165194,2.9336637467036693,0.15137753557372086,0.0,6840.887530178117,0.0,0.13722022728070846,-0.6973427661068492,7.063039033799597,49.88652039297674,-27.403480971195243,18.018993875312205,-0.000903428189816922,0.44660750853828335,4.604406124129387e-05,0.04290547522529665,45.42247484650745
65,2,1,0.12969135766447507,0.14298420706855533,0.07252849028199754,0.0052603819025858105,-0.00015072664166003452,0.03340989273195687,0.3669328005189655,0.0006913242989293674,0.014900611139694049,9.351733243323386e-05,0.005893710099877814,0.3335229077870086,5.0,0.048,0.1121698898464766,0.10334592643029868,0.046875,0.06375,0.007886871478352726,1.543779836736356,1.504233242721501,0.08996756149612141,0.008094162121558387,0.0024613195529109206,1.3143966170519832,1.5953715145482006,0.002358448589470391,0.0015867155508128953,-2.8631471698783532e-05,4.713848038187756e-05,0.2809748974962174,0.9340886944060011,0.9332154935061975,0.03514157333241575,0.001234930176277554,0.0007591919940743487,0.8455387471088716,0.9950469793490105,0.001003456132959915,0.00518281813297095,3.162919336571456e-05,0.0020724834506713717,0.14950823224013898,5.0,0.056999999999999995,0.03695665178781917,0.044797445428773106,0.06375,0.0825,0.006797270239647605,-1.0,-1.0,-1.0,-1.0,-1.0,-1.0,-1.0,-1.0,-1.0,-1.0,-1.0,-1.0,-1.0,-1.0,-1.0,-1.0,0.17723912853066948,0.27418683160165047,2.964999855104912,220.20793492504572,-49.49109984980896,41.05619661603123,-0.016085463987208195,1.0332057420748724,0.0016044591229500739,0.07849117774650498,90.76409946009517
66,2,1,0.1373056012556599,0.1511450629570988,0.08044370171769792,0.006471189146045956,0.0007816235195018909,0.03340989273195687,0.3789401141511266,-0.0020208069777195568,0.0135678574042585,0.00018504256172358953,0.00456112315936788,0.3455302214191697,4.0,0.78,0.0990380310526575,0.09378457603047263,0.04999999999999999,0.065,0.008125133421066901,1.5828446615891199,1.560417662617635,0.04534793837045286,0.002056435514450391,0.0011117533577672304,1.430549817155622,1.5968379971089042,0.0012856485559949865,0.0016705769647967874,-4.645356306238237e-05,3.6750254362906117e-05,0.16628817995328227,0.95299495688841,0.9543174639979121,0.03301266542341366,0.001089836078358252,0.000624481968598996,0.9025783970697905,1.0413187505515327,-0.00022710175680920133,0.004685903280034205,6.0928365559761766e-05,0.0017401601770351638,0.13874035348174218,4.0,0.7893749999999999,0.03281697427188113,0.03746882366112142,0.045,0.06749999999999999,0.0042376359926330105,67.36842105263158,890.625,148.23176532039278,0.0,281.25,1.0,1.0,140.625,198.87378220871648,66.29126073623877,41417.48127291227,3.0000000000000027,0.2808199943836001,0.0,0.0,-0.04851191174029923,0.5993707836645041,-0.026153894985861174,7.306966212150537,53.39175522550957,-27.403480971195243,18.018993875312205,0.0022303629480671956,0.44034640071752784,-0.00022337118729259947,0.042454159454456596,45.42247484650745
67,2,1,0.12560375740044577,0.13056453380832705,0.08938786979737626,0.00799019126691269,-0.0006817450671320632,0.015650604349822357,0.3789401141511266,-0.0004023075277503121,0.012473909536064103,3.4379177817235766e-05,0.004419451051012941,0.36328950980130426,3.0,1.0275,0.11994002406741026,0.11661493805563854,0.05249999999999999,0.0675,0.011428895432951103,1.5828446615891199,1.5786132346682256,0.015321076629847856,0.00023473538909767012,-4.228558885852135e-05,1.5451218235421469,1.5968379971089042,2.8740710150397993e-05,0.001022215207441056,-2.5989150191155683e-05,4.453177284809234e-05,0.051716173566757284,0.9528048596021385,0.9535813004969117,0.0335564543596925,0.0011260356291941257,-0.00023843898345713766,0.9052351626219897,1.0413187505515327,-0.0001216472922192971,0.004466655565755301,6.017171994804569e-06,0.001691083662535562,0.136083587929543,3.0,1.0325,0.038961881693461674,0.0430634591384903,0.045,0.06749999999999999,0.0042376359926330105,68.57142857142857,875.0,123.3145296154744,76.04657161692103,220.55615958582976,1.0,1.0,109.375,155.73646077538731,60.199355497743895,29453.16803878586,2.5870120948591198,0.32663726931242854,0.0,80882.88138745341,0.0,0.8803637106835824,-0.03801552347907129,6.733972078491251,45.346379953899785,-27.403480971195243,15.787132620822426,-0.0013595487293503905,0.41224090712829375,0.0001021608358966157,0.04143252591126487,43.19061359201767
68,2,1,0.08898135219535439,0.11134564037428785,0.09862402408914667,0.009726698127536583,-0.001729931735212287,0.00488895494565772,0.3789401141511266,0.0007171578825632838,0.013743155343326562,4.1606486553204954e-05,0.00399939242114254,0.3740511592054689,1.0,3.0,0.18680922133171696,0.22981759680066693,0.06749999999999999,0.09,0.020683583712060024,1.582538706844494,1.57536388899655,0.01807097997271213,0.00032656031717416296,-0.0004086058876344278,1.5461759102119705,1.5968379971089042,-6.7557286622638156e-06,0.0010524798956450456,2.0925925468703866e-05,6.420514632098251e-05,0.050662086896933634,0.943322815022741,0.9462007419261909,0.03756728688356943,0.001411301043792408,-0.0007028049536523584,0.9018148490678457,1.0413187505515327,0.0002142333782114365,0.004925556295147471,5.018529316232108e-05,0.001610814136554529,0.13950390148368697,2.0,3.0,0.0468080695037163,0.07794972779274645,0.06,43199.65875,3426.665903974804,77.57575757575758,773.4375,126.21480016721493,0.0,281.25,1.0,1.0,46.875,0.0,0.0,0.0,1.8627853722820145,0.3233107015842224,0.0,0.0,-0.3799916806207152,0.6710001573873349,0.38115302734484763,4.700963574901615,22.099058532551773,-11.168881908105247,12.700301217712349,-0.005372346338720963,0.25926099384132834,-0.0003036433272678509,0.027627190013924958,23.869183125817596
69,2,1,0.08898135219535439,0.11946326228070099,0.10629700350858072,0.011299052954903223,-0.00039900499589651223,0.00488895494565772,0.3789401141511266,2.8705700857047563e-06,0.014540835733451397,-2.169162692258741e-05,0.004254649581670296,0.3740511592054689,3.0,28800.74,0.11537375569987658,0.19260878139913115,0.07125,0.105,0.027225753102838073,1.5826428547063283,1.5903044048457342,0.04350270296182075,0.0018924851649844078,0.00057059137229947,1.5461759102119705,1.7277934506642576,0.001126111008246373,0.002475924817801479,4.552684206996042e-05,7.618946630969604e-05,0.18161754045228706,0.943322815022741,0.9537937407446312,0.04350589310848629,0.0018927627351670352,5.518303340505768e-05,0.9018148490678457,1.0413187505515327,0.0003712622779650875,0.00502020657392373,7.0260173469616214e-06,0.0014521579550389868,0.13950390148368697,2.0,43201.08375,0.050808360810111086,0.06833008920230094,0.045,0.06,0.001762261498876052,66.20689655172414,906.25,174.37489817527168,125.7842153722221,186.73890668747458,0.6666666666666666,0.5,156.25,131.00019630630965,141.74180375701323,58333.73364425745,0.9242170822863393,0.10036130068245684,0.0,101422.53741022685,0.0,0.528360564620658,-0.07014438334074254,5.55922193775154,30.904948553177995,-27.229747629852564,14.838955068613348,0.0017082700755998751,0.39622327413661135,8.39717251012546e-05,0.041250800471059,42.06870269846591
70,2,1,0.11807044545460268,0.1501633982731311,0.1459057914062236,0.02128849996587643,0.0030798628757669273,0.00488895494565772,0.5120532546688656,0.0006773313502439286,0.018057945871796016,-9.813382209217578e-05,0.005337653746437956,0.507164299723208,3.0,1.0450000000000002,0.137564759177364,0.2391552501481252,0.07874999999999999,0.11624999999999999,0.03748565200250775,1.5828250654422025,1.6407073077604641,0.10020070256077004,0.010040180793671909,0.0025958076163798533,1.5461759102119705,1.8279947706863267,0.0020450812003564496,0.0025626385472147825,1.1669034077318544e-05,0.00012979797119067984,0.2818188604743561,0.9687502943035351,0.9804574227136498,0.07607466616673964,0.005787354832380881,0.0018646392897331467,0.9018148490678457,1.143988500027803,0.0008870202699356876,0.006232263094812161,-3.182858242333543e-05,0.0017718033753907798,0.24217365095995724,0.0,0.0,0.0,0.0,0.0,0.0,0.0,61.935483870967744,968.75,166.96233244221722,154.3710264860585,232.4793127557267,0.75,0.625,125.0,163.91711378141602,134.1769866449429,69095.88844509675,1.2216484948732005,0.2816636935499014,0.0,238930.0597856598,0.0,1.059455383444904,0.04777052412016154,7.194242989833553,51.75713219676922,-33.72540978853772,15.633227779541865,0.0024889166035863054,0.45377888856658233,-0.00011799532597088243,0.043207334907851794,49.35863756807959
71,2,1,0.1352834854259778,0.1560636209833773,0.14354619246204736,0.020605509370351143,0.0005306315150582017,0.00488895494565772,0.5120532546688656,0.001518452260100694,0.019350247729461967,0.00013162131886880422,0.005660165675805086,0.507164299723208,3.0,1.0450000000000002,0.137564759177364,0.2391552501481252,0.07874999999999999,0.11624999999999999,0.03748565200250775,1.7306438780348086,1.7048446110806812,0.11129281365252655,0.012386090370696,0.003068588766365392,1.5461759102119705,1.8279947706863267,0.002258806424998666,0.0023246491220572526,1.3907725739138269e-05,0.00014175231845615785,0.2818188604743561,1.003203545210734,1.0034677728610866,0.06750203913720217,0.004556525287680372,0.0011812413581773669,0.9018148490678457,1.143988500027803,0.001242124872764753,0.006615189322956627,4.597291060209688e-05,0.0018810785584038982,0.24217365095995724,0.0,0.0,0.0,0.0,0.0,0.0,0.0,61.07355864811133,982.421875,180.60862747487832,112.5,163.57815410378,0.8,0.6,132.8125,115.32901304528707,103.17233762011985,37381.069164886925,1.117828826074757,0.2546148949713558,0.0,13348.475795333563,0.0,0.06187202132697284,-0.16215342158064078,7.317102570396012,53.53999002569593,-33.72540978853772,15.633227779541865,0.0053299159705897155,0.45122142577440993,-9.646672865012974e-06,0.042977747107963,49.35863756807959
72,2,1,0.1728717999877928,0.19042233632159372,0.12569902822430584,0.015800245696534838,-0.0011939151146256426,0.009131963522504696,0.5120532546688656,-0.0006897401935669997,0.018616314731991223,-8.286248939904639e-05,0.0057656598054147724,0.502921291146361,4.0,0.061875,0.12347971168045788,0.16245588946443817,0.06375,0.08625,0.0210641737880101,1.8161133052784129,1.7819372416657027,0.08635317450405053,0.007456870746927002,0.0022733349181862424,1.583642644284438,1.9155800430997383,0.0027920448565874447,0.002219737779437838,-1.5480450908100796e-06,0.00014746250615664677,0.33193739881530027,1.0374746410621025,1.0401263421664066,0.04599819775926201,0.0021158341971001765,0.00035516388555187307,0.9678845598778143,1.143988500027803,0.0006933456797223191,0.006352719051836414,-2.761108723634507e-05,0.0019096813086118972,0.17610394014998865,1.0,0.06,0.020824664126646297,0.020875609594008138,0.06,0.08249999999999999,0.001722237791505671,61.935483870967744,968.75,142.77864751950833,135.51678990893424,199.07827972517077,0.6666666666666666,0.5,109.375,130.9872535412426,110.30113846118422,45389.86634289018,1.1875421719907087,0.2582311168495804,0.0,21688.435360211457,0.0,0.018343276755745458,-0.6212698634422424,9.458998863100536,89.47265949213724,-44.8281641573084,41.62493051995503,0.02438555404883082,0.575793465465729,0.0005042469481088203,0.05003260931684494,86.45309467726344
73,2,1,0.16688295093507277,0.17609528795018675,0.1297085823322113,0.01682431633063204,-0.0018676902909165074,0.009131963522504696,0.5120532546688656,-0.0009254772281367331,0.018364143310617587,-0.0002759939511884855,0.005101924344640498,0.502921291146361,4.0,21599.838750000003,0.13774398408134433,0.20816313236054085,0.06499999999999999,0.09249999999999999,0.025608272490825302,1.8275380515878332,1.850109010168219,0.053129203698402516,0.002822712285626348,0.001410886742400758,1.7334943054053595,1.9340373925755512,0.0013304378105914747,0.0024306826380170047,-7.725744542477348e-05,0.0001621420659674921,0.20054308717019165,1.0564910088861161,1.0578127238922337,0.039698529673790776,0.0015759732582608468,-0.00015158214333136025,0.989201137723322,1.143988500027803,0.00013295473437673622,0.006380260691128291,-0.0001159862186315655,0.0017010395181099184,0.15478736230448098,2.0,1.53,0.025450704715019423,0.04059158582993838,0.056249999999999994,0.08625,0.003574959188716924,-1.0,-1.0,-1.0,-1.0,-1.0,-1.0,-1.0,-1.0,-1.0,-1.0,-1.0,-1.0,-1.0,-1.0,-1.0,-1.0,0.1760268071814391,0.30098991655094054,2.829948828438294,218.49397133829018,-49.493449858389795,41.056505650281906,-0.014358305858545941,1.0486676811938789,0.0015742879724285458,0.0780912891260077,90.7742820661515
74,2,1,0.07205713783027351,0.09892930314408568,0.07733193754345732,0.0059802285642251846,-0.0006850036405394955,0.007382618234825367,0.25111945270010055,-0.0010752139839711212,0.010561479151433692,9.938284597899673e-05,0.003297781087768948,0.2437368344652752,3.0,0.06499999999999999,0.09919790152039938,0.1226916724139598,0.04875,0.07125,0.007053426662718785,1.8491974467715484,1.8625787107388898,0.042511607017561896,0.0018072367312156176,0.0004101271297351802,1.8137331274339281,1.9340373925755512,-4.621132466780346e-05,0.002443545456670395,3.5878201054037604e-06,0.0001680442015832753,0.12030426514162307,1.0346435487735448,1.0365519485323118,0.033167426290870466,0.0011000781667603256,-9.136726705863834e-05,0.989201137723322,1.1101221899839402,-0.000380171844449774,0.0037427165787903213,1.6808006494576967e-05,0.0011013567577535081,0.12092105226061822,2.0,1.53,0.025450704715019423,0.04059158582993838,0.056249999999999994,0.08625,0.003574959188716924,-1.0,-1.0,-1.0,-1.0,-1.0,-1.0,-1.0,-1.0,-1.0,-1.0,-1.0,-1.0,-1.0,-1.0,-1.0,-1.0,0.17982831169387797,0.27465773425129064,2.478401410945791,215.84176088968007,-49.48887257557362,41.05590137839317,-0.014764500517424265,1.0461336084796176,0.0016007672841025088,0.07741751806954937,90.75900879874825
75,2,1,0.12987615548217646,0.14691577378158185,0.11761011767458367,0.013832139779429419,0.00025330092238091284,0.00652790745336617,0.45193735751989705,-0.0006687021685828699,0.016679963330214737,-0.00016590678405008715,0.0040378824682035875,0.4454094500665309,3.0,1.0425,0.09605022684988014,0.2038314449434029,0.057499999999999996,0.09000000000000001,0.02296634778886442,1.8491974467715484,1.8665848504744804,0.03895457562899724,0.0015174589624352658,-0.0004953024386574413,1.8192039905859811,1.9340373925755512,0.00019277945472869854,0.002448858279789519,-2.094724320116694e-05,0.0001622679375690144,0.11483340198957004,1.0544791797353035,1.0536398229119492,0.03984281520874555,0.0015874499237582458,-8.206088640175028e-05,0.9911073698128859,1.143643548508142,-0.00016111529906569962,0.005703293079109806,-5.840960394179195e-05,0.0013296352991228374,0.15253617869525604,3.0,2.02,0.032090794307819394,0.0756082605393064,0.0625,0.09999999999999999,0.008573074549028087,-1.0,-1.0,-1.0,-1.0,-1.0,-1.0,-1.0,-1.0,-1.0,-1.0,-1.0,-1.0,-1.0,-1.0,-1.0,-1.0,0.17846717980568216,0.2747199419058168,2.6127600442587227,224.41879871002504,-49.4962895931676,41.05688855051994,-0.015235580111543603,1.0336737590587248,0.0015963432148204811,0.07704837055777504,90.78228422254324
76,2,1,0.06764423655052858,0.11974322217977881,0.11747054116829113,0.013799328042371183,8.141462111405203e-05,0.00652790745336617,0.45193735751989705,-0.0007446995034237215,0.016018420585773702,-6.280103543269122e-05,0.003774638317693962,0.4454094500665309,2.0,43201.08,0.11867998342069397,0.30651103026826026,0.0675,43199.6625,7917.62365647153,1.8392432545762774,1.850619271573329,0.04835309263756794,0.0023380215676172275,-0.0012589654433426093,1.7469902142068476,1.9340373925755512,-0.0014340125234790836,0.0019876804136824463,-5.540524743082679e-05,0.0001545955041674823,0.18704717836870355,1.0240332857023478,1.039461625681452,0.043835103747455806,0.001921516320550214,-0.00038631184380684793,0.9893005862565494,1.143643548508142,-0.0007114137846050463,0.005491503053908241,-4.0250027508484385e-05,0.0012406934097512147,0.1543429622515926,2.0,43201.07625,0.037723859398405946,0.13254583744927873,0.09,43199.68875,5160.207296308531,61.935483870967744,968.75,171.16329922036442,188.79759333741518,255.314603724503,0.6666666666666666,0.6666666666666666,109.375,159.42945692722884,177.46588580625846,88885.99137277495,0.8983667830181166,0.2065688907250568,0.0,50392.90839565009,0.0,0.2241538318888276,0.48327354958607743,16.520787785236248,272.93642904481123,-53.782506868977976,46.11917131227199,-0.00546903027019897,0.8744503141344866,-0.0008631660004147003,0.07842526895885574,99.90167818124996
77,2,1,0.06226101056267589,0.09747518716317011,0.11701795317169877,0.013693201364493887,-0.00043258564434487117,0.00652790745336617,0.45193735751989705,-5.669568737853418e-05,0.015014071796179852,3.2809608095812125e-05,0.003323623632203816,0.4454094500665309,2.0,1.5225,0.07558254440171394,0.22337449438401036,0.0525,0.08625,0.027778737260595543,1.8237313688716226,1.7960787988862033,0.05968350429802515,0.0035621206852923864,-0.0015447624919163643,1.683044620152807,1.8884744276107153,-0.001727681664041647,0.0017790830123058808,3.0238256575129223e-05,0.00013215007645915453,0.20542980745790818,1.0050309861478892,1.0142084752448022,0.04866553620120737,0.0023683344137510253,-0.0006517722742552139,0.9505543030575905,1.143643548508142,-0.0005802213710595088,0.005126973055712463,2.944177149391061e-05,0.0011126041831332155,0.1930892454505515,1.0,3.0,0.04537097349341934,0.14564160995804243,0.075,0.1275,0.01856930526965041,61.44,976.5625,149.25760292611562,0.0,15.625,0.0,0.0,15.625,0.0,0.0,0.0,1.534355260511073,0.25614754098360654,0.0,0.0,0.15050637290544944,0.12849396407662506,0.02614378403479115,16.055762276361833,257.7875022750437,-53.782506868977976,46.11917131227199,-0.000765356929875958,0.887353552722543,-3.4838240309600806e-05,0.08102422034785697,99.90167818124996
78,2,1,0.06820557664852514,0.13114063271628623,0.13170370612367063,0.0173458662067102,-0.0007232900551351971,0.00652790745336617,0.45193735751989705,0.001641306441904188,0.02013766584926671,-0.00019053893636117772,0.005230685748614657,0.4454094500665309,4.0,0.796875,0.10222717854903292,0.2072985936627904,0.057499999999999996,0.08749999999999998,0.01912734014950133,1.7450386992167548,1.7602867489158192,0.06214968583257895,0.0038625834490882654,-0.0016020189456836663,1.683044620152807,1.8437985778662194,-0.0007201619529577107,0.002206979502352655,2.1214108980138296e-05,0.00011922852211281742,0.16075395771341228,1.0010166833954273,1.0135215632638646,0.05489642483486863,0.0030136174596503817,-0.000764644545547032,0.9505543030575905,1.143643548508142,0.00031517448019754285,0.006851081363603555,-6.115346648858077e-05,0.0017208476498745213,0.1930892454505515,2.0,3.0,0.06338499900765981,0.13846883310652291,0.075,0.1275,0.01856930526965041,61.79310344827586,970.9821428571429,135.555593309723,121.25465340440432,206.10790559801436,0.6666666666666666,0.6666666666666666,78.125,141.01027469459254,60.06543018057703,26608.79594710919,2.347611167865907,0.14716703458425312,0.0,24199.757246697438,0.0,-0.4736065668429551,0.16511834609131762,13.060536299509065,170.57760843079396,-52.7429254272086,46.11917131227199,-2.102823706242226e-06,0.7303031708531388,-0.0004992635601112016,0.07098284947769705,98.86209673948059
79,2,1,0.06536389019906302,0.08654003513164292,0.0881838297255288,0.007776387825061056,0.0005152676432948144,0.012986854421315896,0.3968860494209008,-0.0008186203247129967,0.014402475270181412,9.821838593218965e-05,0.004199055153775954,0.38389919499958486,3.0,0.0625,0.09259937743547329,0.13315056922056837,0.057499999999999996,0.08,0.0135393196699599,1.740004979589334,1.7461714719469592,0.04949981375508903,0.002450231561788501,-0.00022212928826464488,1.683044620152807,1.8408480315864022,-0.0002562780296855971,0.0026094281593273747,1.786485058917024e-05,0.0001122731757038137,0.1578034114335951,0.9966617948054073,0.9942107441321926,0.03240277267421104,0.0010499396769765976,9.385505167581126e-05,0.9505543030575905,1.087506048179724,-0.0003491439860941886,0.004854144441647619,4.682948651984602e-05,0.0013994538812378383,0.1369517451221336,1.0,3.0,0.08139902452190029,0.1312960562550034,0.075,0.11249999999999999,0.014770806328687882,53.581395348837205,1119.7916666666667,101.12754082785207,43.322408228161784,106.834330712323,1.0,1.0,78.125,30.633568635465082,105.50491278179302,10153.60228307102,0.29035205875978426,0.14887598630340926,0.0,11670.56337149611,0.0,-0.9417991563052428,-0.3706275214244015,10.766748986837117,115.9228837455581,-27.565528563431183,46.11917131227199,-0.006017568171517437,0.5551296601783523,0.00017175861905069725,0.052847885071386345,73.68469987570317
80,2,1,0.06235837963636573,0.08705294863786338,0.0887702287205253,0.007880153507094374,0.0001366929963830889,0.012986854421315896,0.3968860494209008,-0.00027141565843968873,0.014625379985507218,-8.133187484209032e-05,0.00431746856922852,0.38389919499958486,3.0,0.06749999999999999,0.09909400722246764,0.1415883904713139,0.0625,0.08750000000000001,0.014236420017724453,1.740004979589334,1.7473512538397082,0.04876830005724345,0.0023783470904733314,0.001219591041924198,1.683044620152807,1.8124594259005158,0.00040439114992047906,0.00201703521731866,2.8099249308435417e-05,0.00010515534924164682,0.1294148057477087,0.9978593700142082,0.9947776090318897,0.03238159482185103,0.0010485676832065294,0.0004471706629428481,0.9505543030575905,1.087506048179724,6.945715792315242e-05,0.004904931270281874,-9.227366039803176e-07,0.0014355893474012338,0.1369517451221336,2.0,1.53,0.04660725460319837,0.07174200610705395,0.056249999999999994,0.08625,0.0077510418431170755,-1.0,-1.0,-1.0,-1.0,-1.0,-1.0,-1.0,-1.0,-1.0,-1.0,-1.0,-1.0,-1.0,-1.0,-1.0,-1.0,0.17938512780764454,0.274993016768555,2.500391277039517,216.82003872843154,-49.493024641647935,41.05645348969847,-0.014768405105174898,1.0384855521351501,0.0016008458054557694,0.07718901613771657,90.77207678183913
81,2,1,0.07239716919406602,0.10042565604005449,0.08943659426674233,0.007998904394033887,-0.00040147548879751206,0.015501285476415792,0.3968860494209008,0.0006685006172072254,0.01548517713602275,-0.00010104914863431731,0.004671775179799163,0.381384763944485,3.0,1.045,0.12567456949755432,0.18835783310588758,0.06,0.08625,0.020442357062930225,1.7946736782421728,1.774383264665173,0.04687331149918685,0.002197107330899802,0.0012014916010968913,1.6830853024403143,1.8499704504401724,0.0014059485819930947,0.0014747720866315958,2.79284015729811e-05,0.00010812411774808705,0.1668851479998581,1.00314731814737,1.0080477977563453,0.030108840662835926,0.0009065422860600421,0.00026093205144625856,0.9542269062457998,1.087506048179724,0.0006518769215120078,0.005213223818046087,-9.21003766456846e-07,0.0015888525032768024,0.13327914193392432,3.0,2.02,0.04149741063174339,0.06827463502172666,0.056249999999999994,0.08625,0.0077510418431170755,55.19507186858317,1087.0535714285713,174.96355305594128,87.69509500251425,324.57153246626547,1.0,1.0,125.0,227.10065396482236,121.78482240718672,86888.32490641711,1.8647697592850516,0.13144058885383805,0.0,36141.84822919783,0.0,0.20795216431124264,-0.050467973624835356,7.877956126614742,62.06219273286675,-21.756267959388435,20.453665394287302,0.0050139019071013,0.5325729032562888,9.568825424043416e-05,0.0486720390575447,42.20993335367574
82,3,1,0.28138329133269757,0.34166671671872206,0.2115391209987838,0.04474879971293809,0.0028498471383995743,0.052564869802322764,0.8673998966320249,0.0046278869091170615,0.0303398388839367,-0.00011267615748418643,0.009707385796225888,0.8148350268297021,3.0,0.049999999999999996,0.10545374960598448,0.08469056020873612,0.03,0.045,0.004993694032850901,0.675118620334794,0.6905245758275773,0.10038138458246951,0.010076422370693646,0.0020564122126499698,0.4802757737380017,0.9467116507878574,0.0039794071978373514,0.0054889201764512854,-6.305243283926583e-05,0.0003404673514933652,0.4664358770498557,2.853751838660963,2.9293288699519975,0.43671477941254205,0.19071979855734528,0.008062852440002892,2.2998751695600363,4.193237929513354,0.014164176716418031,0.05176581020747584,-0.0002927785215822709,0.016042717740099716,1.8933627599533178,3.0,2.015,0.18814237081787452,0.40394586421374806,0.04875,0.09375,0.04764394413199385,58.18181818181818,1031.25,178.93378414134895,171.63809430504253,342.92040044544837,1.0,1.0,125.0,121.3664603930317,116.3453536650452,44360.61954214298,1.0431569166263581,0.13856172925038104,0.0,11906.194615849432,0.0,0.004118294153979468,-0.27039678162698155,5.01198851757762,25.120028900329917,-28.68654695238356,11.868987439464597,-0.0017367974381185395,0.3263454322155504,-1.7214488295911722e-05,0.03407890104054052,40.555534391848155
83,3,1,0.3581085497347236,0.39663264513597923,0.24191586483316713,0.05852328565797919,0.0031738635991425492,0.052564869802322764,0.8835884037380338,-5.123219240217823e-05,0.03504909498707905,-3.125763725501986e-05,0.010396662393834051,0.831023533935711,3.0,0.0375,0.11621705796381983,0.0807849906459399,0.01875,0.02625,0.0007267664621286406,0.7163364341756883,0.7926054464930598,0.17082738017666474,0.029181993818022747,0.0044483181912219226,0.5992596463072926,1.1134388294815993,0.00337802204540717,0.004531800930210002,4.0535684421267223e-05,0.0002082780166306434,0.5141791831743068,3.0852498969482776,3.187333721476107,0.5570087764353469,0.31025877702600224,0.012549026169529923,2.2998751695600363,4.274098678576875,0.005268403737804241,0.05916002719796562,-2.304292408904692e-06,0.017177229722194067,1.9742235090168387,2.0,1.515,0.12212120952069849,0.3587717529255705,0.0375,0.07875,0.04018195371518503,61.736334405144696,971.875,142.31621920919625,0.0,359.375,1.0,1.0,171.875,0.0,0.0,0.0,1.1741956501574817,0.20584602717167558,0.0,55450.1624744939,0.0,0.45174968519606373,0.012482123563251062,5.286111974500539,27.942979806957986,-28.68654695238356,11.868987439464597,-0.0006481670901174196,0.33268068770527454,8.47532197542396e-05,0.03459117517745119,40.555534391848155
84,3,1,0.35373034588851565,0.39987272620757747,0.23885825346917716,0.05705326525034569,-0.0029387878540739452,0.036856695449009685,0.8835884037380338,-0.0007240788545710884,0.03479935965773708,-0.00035367584988061355,0.010212842990921678,0.8467317082890241,3.0,0.0375,0.11621705796381983,0.0807849906459399,0.027499999999999997,0.04,0.004754127448463124,0.9503500308722785,0.9144133057074995,0.20068325443245288,0.04027376860960062,0.0056980600263501525,0.5992596463072926,1.1547233479781336,0.004601278846122945,0.0028237162394169494,6.004067346376355e-06,0.00017739501692949026,0.555463701670841,3.424633535023543,3.3935193891066215,0.4136054293089294,0.1710694511538238,0.004543693218079914,2.452581544517863,4.274098678576875,0.006364904931332116,0.057664743049165114,-0.0005971873133856147,0.016756984674999146,1.821517134059012,4.0,0.7799999999999999,0.16273613455578229,0.28522429751985245,0.035625,0.06749999999999999,0.027808261233477335,70.13698630136986,855.46875,160.12448872056027,102.36064586996639,180.3091601366017,1.0,0.8333333333333334,109.375,120.25781134394602,143.97297396005533,54393.141691861354,0.835280456020246,0.2923406743324888,0.0,399248.7777195641,0.0,0.10074777402394293,-0.0530238465921664,4.621338781528031,21.35677213365499,-28.68654695238356,10.163838654437178,0.0011866838996462692,0.3045847833405427,0.00021896180825046077,0.03258594977996193,38.85038560682074
85,3,1,0.2728825603874555,0.3235873778618076,0.23295062250252055,0.05426599252431183,-0.0027466929413269506,0.013642246170781422,0.8835884037380338,0.0009648158189136213,0.03384641312828156,0.0008066318284303711,0.009743690536225659,0.8699461575672524,3.0,0.05249999999999999,0.17468404773858678,0.18643505474004526,0.03,0.045,0.006590866113960614,1.115082941253862,1.039976399887282,0.1324790255856285,0.01755069222011761,0.003387376666710338,0.7200323081571703,1.1547233479781336,0.0034124610882552606,0.003524015222525926,-6.496863557276291e-05,7.728464454215392e-05,0.43469103982096324,3.4462339189549,3.4736338612243314,0.36992109724677996,0.13684161818826165,0.001079466984817987,2.838680564496201,4.274098678576875,0.007379304287873983,0.055247654691795066,0.0011625385096628684,0.01598439644418784,1.435418114080674,4.0,0.050624999999999996,0.2359790572142213,0.26470613796960696,0.03,0.049999999999999996,0.011159608451447466,75.62363238512035,793.4027777777778,152.0758020712608,101.26157341262281,173.28963291264714,1.0,0.8333333333333334,93.75,122.18787741487604,103.82430718359151,39854.46971479935,1.1768715894131843,0.3502872355331371,10579.319519195506,75271.2878527876,0.14054920303590515,-0.00024879144483531783,-0.04468781792899231,4.0506823548999735,16.408027540297994,-28.68654695238356,10.163838654437178,-0.00045105597012270245,0.27984589149249195,9.365152807607599e-05,0.030825977198364475,38.85038560682074
86,3,1,0.2498621616600017,0.29027772245625083,0.20364996206353528,0.04147330704847936,-0.0023615124462708814,0.013642246170781422,0.8835884037380338,-0.0054918207247993504,0.027809970733719772,9.416137857525611e-05,0.009070658173688595,0.8699461575672524,4.0,0.054375,0.18977616562390465,0.2064453977605927,0.0425,0.0625,0.011208828772137523,1.13402674140549,1.1180802449218803,0.05116816499423561,0.002618181108877319,0.0010795301724328015,0.9539884109566996,1.188233942131471,0.001998627814986169,0.002536379732651079,-2.6788398015802074e-05,0.0001195981779928537,0.23424553117477132,3.467794036845786,3.5478363521070504,0.27249605998408305,0.074254102706849,-0.0021106993502906985,3.138701283261559,4.274098678576875,-0.005718240352887719,0.04486330229358727,4.667395900279832e-05,0.014707552871746203,1.1353973953153162,5.0,0.058499999999999996,0.26559688066262765,0.30153244955979763,0.0375,0.0625,0.022045679606283636,82.15813953488372,730.2989130434783,125.18815588472627,91.52533428073681,145.97277559626582,0.8888888888888888,0.6666666666666666,93.75,102.68954135144766,119.74919990019184,38632.13474888209,0.8575384339689701,0.05957345406886691,34194.489908157855,42645.25577277182,0.8018357326863632,0.06910342808277814,0.07093465473804098,3.6968392398381393,13.666620365207033,-13.66194996207958,19.082662879456684,0.005689213654428213,0.18102346409780157,-0.0001084546502940728,0.019634481493979374,32.74461284153627
87,3,1,0.21004655336677985,0.23541413127052735,0.13033578601491855,0.016987417116126634,0.0012761316871765529,0.013642246170781422,0.5696927976852793,-0.0019332006278197438,0.025020213506510902,0.00014613920273124468,0.008930155968387081,0.5560505515144978,5.0,0.054000000000000006,0.18191148359968196,0.19365673655541743,0.0425,0.06,0.011079480531760869,1.1498648621829517,1.1702680446690186,0.05166742939311487,0.00266952326009251,0.0011353529379365456,1.1167270530261246,1.3054583117724075,0.0015986732334858811,0.0019518047960429066,-9.380468625118839e-07,0.00010531583897533054,0.18873125874628283,3.5080432655193556,3.543356077387742,0.23655250372810105,0.055957087020033255,0.003964133214537405,3.138701283261559,4.05557309562722,-0.0005024475397692814,0.041062174169016266,0.00027904449733611353,0.014479881951118365,0.916871812365661,5.0,0.058499999999999996,0.23095965539687846,0.2732622801341183,0.03375,0.056249999999999994,0.01807514506444626,80.25078369905957,747.65625,150.29877471119815,129.32617838885778,207.6812712226759,0.9333333333333333,0.7333333333333333,117.1875,145.59876969298577,140.73298323223466,64372.95887821031,1.0345745989958992,0.06691648822269806,42143.888123212324,79143.80367740894,0.5324976329794724,0.10905023798552867,0.03584296988445899,3.737551223784848,13.969289150415612,-13.66194996207958,19.082662879456684,-0.0007671179408638651,0.2009273809743215,-0.00015018381006900547,0.02386505545166807,32.74461284153627
