,subjectID,Label,median_p,mean_p,std_p,var_p,slope_p,min_p,max_p,fdmean_p,fdstd_p,sdmean_p,sdstd_p,drange_p,peaks_p,rise_time_p,max_deriv_p,amp_p,decay_time_p,SCR_width_p,auc_p,median_t,mean_t,std_t,var_t,slope_t,min_t,max_t,fdmean_t,fdstd_t,sdmean_t,sdstd_t,drange_t,median_f,mean_f,std_f,var_f,slope_f,min_f,max_f,fdmean_f,fdstd_f,sdmean_f,sdstd_f,drange_f,peaks_f,rise_time_f,max_deriv_f,amp_f,decay_time_f,SCR_width_f,auc_f,bpm,ibi,sdnn,sdsd,rmssd,pnn20,pnn50,hr_mad,sd1,sd2,s,sd1/sd2,breathingrate,lf,hf,lf/hf,median_bvp,mean_bvp,std_bvp,var_bvp,min_bvp,max_bvp,fdmean_bvp,fdstd_bvp,sdmean_bvp,sdstd_bvp,drange_bvp
0,5,1,0.13712549543610997,0.1852333754799867,0.14790598197702556,0.021876179504588214,-0.0003020655646699223,0.02940096358366165,0.7297938548728161,-0.0006042291534851858,0.019097558502095643,0.00011353405854750585,0.006110192474045042,0.7003928912891545,8.0,0.8340000000000001,0.12315031666821105,0.1451152240413459,0.11885714285714286,0.16685714285714284,0.024524460546121753,2.5413205010345767,2.518087925539477,0.07733048111071314,0.0059800033088143615,0.000902552816697169,2.3467594479411416,2.5923565028237245,0.0007288342070333557,0.0016420596916170728,3.4917183680066578e-06,8.637659690147771e-05,0.245597054882583,4.062169062181523,4.122588859069229,0.1559673086214267,0.02432580135861136,0.000560242202271004,3.911687204693993,4.689453110321425,0.00011194869448975705,0.01822357933795076,0.00010591835744415504,0.005833558420162635,0.7777659056274322,8.0,0.8340000000000001,0.11561518318763353,0.14637242329275946,0.11466666666666665,0.168,0.030819247074757,-1.0,-1.0,-1.0,-1.0,-1.0,-1.0,-1.0,-1.0,-1.0,-1.0,-1.0,-1.0,-1.0,-1.0,-1.0,-1.0,-1.0,-1.0,-1.0,-1.0,-1.0,-1.0,-1.0,-1.0,-1.0,-1.0,-1.0
1,5,1,0.10650363081985986,0.15738613351384734,0.14602408236383474,0.021323032630199988,-0.00038313855866613017,0.02940096358366165,0.7297938548728161,-0.00014569391061731302,0.01795155058804688,-1.5771523374119304e-05,0.005982723761876865,0.7003928912891545,9.0,0.44000000000000006,0.11997185833116521,0.13653158076082184,0.13028571428571428,0.1737142857142857,0.025061787677326697,2.5583044314561123,2.55949827376079,0.02564497968247491,0.0006576649829145509,0.00014864951940550802,2.5020738888747722,2.6067307321106052,0.00044216246919596784,0.001045023764282052,-1.1630628200198316e-05,6.470909895278289e-05,0.10465684323583302,4.076856686452365,4.13532920760223,0.14719031095971938,0.021664987640418888,-0.00021866527061972777,3.9991232540909243,4.689453110321425,0.0002661370801583407,0.017072378851272087,-5.424265214671875e-05,0.0057031324621063945,0.6903298562305009,9.0,0.4435555555555556,0.11207094889830078,0.13288674891980573,0.12,0.17066666666666666,0.02708218411617072,54.75935828877005,1095.703125,122.14450870120758,7.8125,133.04208098380002,1.0,1.0,93.75,5.5242717280199045,82.86407592029855,1438.1069886427892,0.06666666666666668,0.3423485107839781,0.0,28143.389303566233,0.0,-3.772531778681616,-0.9904855790822931,80.36726694603712,6458.89759637559,-243.86684684792039,367.839459605779,0.011257412079763348,4.096030214453337,0.002247822394371568,0.36182645585485773,611.7063064536994
2,5,1,0.12004186599440086,0.1638700951884887,0.145578011091709,0.021192957313417752,-0.0011228209552208864,0.02940096358366165,0.7297938548728161,0.0009541714631912093,0.01874718016085634,-2.5212671697946777e-05,0.006252151986064148,0.7003928912891545,9.0,0.7680000000000001,0.11879679683535345,0.1286953679674513,0.124,0.182,0.027684618951917966,2.5692997082033546,2.5674436068647495,0.022982180107860184,0.0005281806025101243,-8.886096575313644e-05,2.5316111014447467,2.6067307321106052,-1.0590845758207123e-05,0.0012776567144481951,2.768126194829338e-06,8.10845320736512e-05,0.07511963066585858,4.114465415368497,4.148749102212237,0.14349335497056107,0.020590342920707445,-0.0011320202905620346,3.9991232540909243,4.689453110321425,0.0008815814519270974,0.017983874602221596,-2.0301650369864792e-05,0.006034885067290172,0.6903298562305009,9.0,0.760888888888889,0.11011842000053128,0.12044992322607397,0.122,0.176,0.025473452719167202,56.36697247706422,1064.453125,176.1606149394903,46.875,178.1524101717403,1.0,1.0,164.0625,121.53397801643786,33.14563036811944,12655.341500056551,3.666666666666664,0.1174674027957242,0.0,89557.06502661729,0.0,3.534375756241876,-0.01963770424942292,82.32530970348601,6777.456617774888,-243.86684684792039,367.839459605779,-0.002760829946089468,4.2181867025132345,-0.0005333114272911297,0.37688300441673867,611.7063064536994
3,5,1,0.11314945425927175,0.14518466939526464,0.11516902458812818,0.013263904224580873,0.000705347532117013,0.02940096358366165,0.641314171914338,-0.000603137615066475,0.015449537875063224,-1.786578895531716e-05,0.005352563073470423,0.6119132083306764,8.0,0.8460000000000001,0.10286299240415556,0.12838174791898352,0.12,0.178,0.02536829476258118,2.571966446500926,2.5880774127635005,0.06063280369536014,0.003676336883960078,0.0005241067572356456,2.5316111014447467,2.7785243001581423,0.0007914368449598234,0.002165633650931249,9.848223592263487e-06,9.638113613310038e-05,0.24691319871339568,4.115737104459126,4.150534896300366,0.1278112312103939,0.016335710823516765,0.0011469074696091842,3.9991232540909243,4.607449007480547,0.00016580295772384847,0.014777689464548315,-4.339505783684805e-06,0.005250456376641639,0.6083257533896225,8.0,1.201,0.09208640802546109,0.12398796429058256,0.124,0.18,0.025552155610209626,62.07852193995381,966.5178571428571,117.64896386700391,78.125,188.79759333741518,1.0,1.0,93.75,121.53397801643784,55.24271728019903,21092.235833427567,2.1999999999999997,0.2957704821058858,0.0,34962.6392564859,0.0,1.6002453557489742,0.16101532768326385,77.29077942499134,5973.864584122665,-243.86684684792039,367.839459605779,-0.00251292599672925,4.019313652839853,-0.0005231262717510292,0.3715998994469383,611.7063064536994
4,5,1,0.11515194479082516,0.1504932233867821,0.11874774805294068,0.014101027667644676,0.0001545871318038317,0.02613278120818702,0.641314171914338,-0.0007473677859496053,0.015976226522216877,3.950676243934699e-05,0.0054146647162274944,0.615181390706151,8.0,0.8500000000000001,0.09792690916817953,0.13156457985737646,0.11428571428571428,0.1737142857142857,0.028184273934626164,2.6008019854100857,2.6413306128963314,0.09730086492042724,0.009467458314263226,0.0012234730785597133,2.5316111014447467,2.789880423569664,0.0010713030753963866,0.002056893943514357,1.0528604233412768e-05,0.00011237794344431086,0.25826932212491727,4.222011387513399,4.205194619211165,0.1339109562986239,0.017932144216811958,0.0012850432803376232,4.002667185615166,4.607449007480547,0.0003019380323792361,0.015142167557592245,3.66682035790535e-05,0.005244630474541991,0.6047818218653811,8.0,1.207,0.08848624629558088,0.1286536455287196,0.1142857142857143,0.17371428571428568,0.028409586694878048,60.34285714285714,994.3181818181819,174.15491049993298,131.69567191065923,319.0715290103459,1.0,1.0,140.625,225.60682059725053,85.69568250501304,60738.077288948305,2.632650957462798,0.3658982802780827,0.0,185357.97307987337,0.0,2.429884908536626,0.12134251472447702,70.02408981214876,4903.373154019875,-215.15439677797738,203.87996199428264,-0.0035451982396260684,3.7456337333603256,-2.7329069009697274e-05,0.3529808350066543,419.03435877226
5,5,1,0.09468059665719783,0.14336775469127758,0.12025096156357928,0.014460293756965422,-0.0004862416982751093,0.02613278120818702,0.641314171914338,9.161268121537675e-05,0.015820805723173396,4.997699571853504e-05,0.005373669224922093,0.615181390706151,9.0,0.7733333333333333,0.08960079440385625,0.12193488562229,0.12571428571428572,0.192,0.02883444169514427,2.764769053919648,2.706133071019639,0.10827728131019448,0.01172396964792699,0.0014385452292742403,2.534722596100357,2.831667765815214,0.0009017379544050861,0.0020730854762655046,1.5285041148079455e-06,0.00010578487026699274,0.29694516971485685,4.275783367889135,4.2590121246480415,0.11851001172649213,0.014044622879413302,0.0008895421546146943,4.002667185615166,4.607449007480547,0.000973986820433124,0.0148892767187232,8.885989547677923e-05,0.005123072524073767,0.6047818218653811,9.0,1.4044444444444446,0.0794563490832078,0.11821868809364637,0.10666666666666667,0.16533333333333333,0.028996486636194637,64.23791821561338,934.0277777777778,209.86129494807744,131.69567191065923,319.0715290103459,1.0,1.0,218.75,225.60682059725053,85.69568250501304,60738.077288948305,2.632650957462798,0.3571003451970004,0.0,110254.13953299006,0.0,1.1381050124576437,1.3044717024605093,69.05812442280343,4769.0245487954,-215.15439677797738,203.87996199428264,-0.02021439106658405,3.6025876907621117,-0.0011636786248641008,0.3349025205742772,419.03435877226
6,5,1,0.08356898820389563,0.13221724169496354,0.12162535823409562,0.01479272776557209,-0.0010967753227814684,0.02613278120818702,0.641314171914338,-0.0011421551966554523,0.01463464260187836,-1.4586807236110925e-05,0.004920631097980429,0.615181390706151,11.0,7854.315636363637,0.07990765208575171,0.1122668916412895,0.12622222222222224,0.18133333333333335,0.029867384811048076,2.785602148733494,2.7693642885748138,0.07474934485988795,0.005587464556982457,0.000836555440006835,2.5510290630610113,2.8363855408530245,0.0008100693123813757,0.002274933936532125,-2.7122945658954178e-05,0.00010048445579996065,0.28535647779201323,4.295868899850646,4.307741883205508,0.06906163963137034,0.004769510068573263,-0.0002419833830196039,4.19603052386174,4.607449007480547,-0.0002918336160618484,0.013768062582622231,-4.046648233148227e-05,0.004677405453708909,0.4114184836188066,10.0,8640.315200000001,0.07659584621210662,0.10434725847111644,0.10400000000000002,0.15466666666666665,0.026863080498085213,63.69668246445498,941.9642857142857,187.26068911753882,131.69567191065923,319.0715290103459,1.0,1.0,218.75,225.60682059725053,85.69568250501304,60738.077288948305,2.632650957462798,0.30349013657056145,0.0,46450.06662199677,0.0,-0.8842870056330805,-0.34639491012204215,68.4726069704698,4688.497905332429,-215.15439677797738,203.87996199428264,0.015970582450244533,3.681316011503379,-0.0006974195972006341,0.3472394021971901,419.03435877226
7,5,1,0.07643607477549146,0.10946103235028487,0.08649682928242747,0.007481701475913403,0.0003224682712495559,0.014134670156615469,0.39900542284680457,5.982548576652091e-05,0.011505446991871657,-1.0373909808993965e-05,0.003821343189867985,0.3848707526901891,10.0,0.4072,0.06831571462477612,0.08601499201539164,0.142,0.19799999999999998,0.02449716013576303,2.7859639325776215,2.7837224421062836,0.045562392587766426,0.002075931618321753,-0.00026382762929069107,2.684350517428981,2.8363855408530245,5.615429620899707e-05,0.0020642145811031304,5.905823777583216e-06,0.00012288134191719216,0.15203502342404374,4.295102230391901,4.299934655027863,0.06749421434497438,0.004555468970045346,5.578445073833041e-05,4.1338897079373025,4.4828219786256405,0.00012069742644292836,0.010642778331041514,-9.77576412970101e-06,0.0036884926079906546,0.348932270688338,10.0,0.6944,0.07054351785891484,0.09033433028135658,0.13119999999999998,0.18239999999999998,0.03181697599906665,-1.0,-1.0,-1.0,-1.0,-1.0,-1.0,-1.0,-1.0,-1.0,-1.0,-1.0,-1.0,-1.0,-1.0,-1.0,-1.0,-1.0,-1.0,-1.0,-1.0,-1.0,-1.0,-1.0,-1.0,-1.0,-1.0,-1.0
8,5,1,0.06713194115957788,0.08776904366512202,0.08303025663619266,0.006894023517072015,-6.49218300961086e-05,0.0054786452526092546,0.39900542284680457,0.0001899476046500764,0.009497659645606752,-2.738318846054841e-05,0.003421976293007782,0.3935267775941953,8.0,0.8200000000000001,0.0664322758475339,0.0708877067615912,0.13714285714285715,0.18971428571428572,0.019304128864395483,2.8173314418428808,2.793826669339455,0.04716136299169975,0.0022241941592348667,-0.0001642990417932609,2.684350517428981,2.8363855408530245,8.51712379190008e-05,0.0020529896912065866,-1.0006662807966749e-05,0.00011657205517908959,0.15203502342404374,4.287332158417516,4.2890630047547145,0.05981069900910278,0.0035773197159574884,-0.00021498900099513386,4.1338897079373025,4.4828219786256405,0.0002565851349105253,0.008864068253219653,-3.318190371484157e-05,0.0033428290102983866,0.348932270688338,8.0,0.8260000000000001,0.0703534684404441,0.07389949519082661,0.1376,0.18239999999999998,0.02352525311360109,63.2967032967033,947.9166666666666,191.0826700817098,0.0,187.5,1.0,1.0,187.5,0.0,0.0,0.0,2.1159737814486306,0.35180299032541773,0.0,109247.95799252277,0.0,-1.6405837714353915,-1.2027898088718343,61.89567703285727,3831.074835355775,-200.2922913811095,174.5536884077391,0.015765418247631547,3.2118093352057304,0.0003739117789386107,0.31399062212896833,374.8459797888486
9,5,1,0.06672967857007285,0.09072984035658341,0.08779336999747428,0.007707675815513417,-0.00016983236806602324,0.0054786452526092546,0.39900542284680457,-0.00028113486489899427,0.010132081359430617,3.380478488382429e-05,0.0034671716489255208,0.3935267775941953,6.0,1.0533333333333335,0.07339582453666942,0.08829367832136092,0.12000000000000001,0.17066666666666666,0.021250783640127238,2.8085481287723244,2.79014644981029,0.0450791897789039,0.0020321333511224334,0.00011082549211873426,2.684350517428981,2.8363855408530245,-0.00011574331523978207,0.0019903096032045133,-6.8594861977873865e-06,0.00011391458376122353,0.15203502342404374,4.277931212483546,4.288360439018347,0.0656430354171854,0.004309008098781856,-5.582109475444803e-05,4.1338897079373025,4.4828219786256405,-0.00040373653429697973,0.009406932873280314,1.8267557829117672e-05,0.0033846567605623533,0.348932270688338,6.0,0.5826666666666668,0.08199059207156563,0.09300845598883016,0.128,0.172,0.028670218409427878,67.36842105263158,890.625,201.3140426050801,39.0625,168.64869644471017,1.0,1.0,187.5,27.62135864009951,182.30096702465676,15819.176875070669,0.15151515151515152,0.32097576632964214,0.0,199377.35776883762,0.0,2.581601609038912,-0.24261801318151566,56.58351938818554,3201.694666353169,-200.2922913811095,143.06683837331053,0.017525755184277094,3.2543501729857596,-0.00033812995491023726,0.32057222797503443,343.35912975442
10,5,1,0.0756198237166284,0.10693222661154184,0.09671402423880515,0.009353602484464192,-5.6401615504128714e-05,0.0054786452526092546,0.39900542284680457,0.000990879679886056,0.011161153487740301,4.285006232606547e-05,0.004288901658022124,0.3935267775941953,6.0,1.0666666666666667,0.10816664223495537,0.11728815750903032,0.128,0.184,0.030905589648523624,2.794488811345179,2.7535571201358366,0.08139556904649427,0.006625238660402616,-0.00032835511423493516,2.4566590610499914,2.82375787509013,-0.0012177342460866843,0.003325471764142118,-2.026713840720303e-05,0.0001202617961088665,0.3670988140401388,4.253904333446166,4.269276200438406,0.07193209397906294,0.005174226144212744,-0.0003580737709374492,4.1338897079373025,4.4828219786256405,-0.00022564505045460185,0.010620427093739773,1.46816094671894e-05,0.004581621230213788,0.348932270688338,7.0,0.5154285714285715,0.0955848375166047,0.09892180383114343,0.12266666666666665,0.168,0.02341637965599638,70.2439024390244,854.1666666666666,162.54673473257535,93.75,132.58252147247765,0.5,0.5,140.625,66.29126073623883,143.6310649285174,29912.625363769985,0.46153846153846173,0.19527436047646943,0.0,72829.65949804038,0.0,0.10653838383627218,-0.5133937772452924,50.51103995918824,2551.3651577587107,-200.2922913811095,143.06683837331053,0.0033705355631950336,2.931590235339642,0.0019194241670905353,0.2949925427744621,343.35912975442
11,2,1,0.06905178785152463,0.07936889496947414,0.047654466813784685,0.002270948207306106,-8.382647219315713e-05,0.012033278953336179,0.2692534239651111,0.0011291772181975341,0.009149043780624137,9.93550306926442e-05,0.0028529965428755197,0.2572201450117749,9.0,0.4382222222222223,0.05494930715370483,0.06636407316366881,0.12342857142857143,0.18057142857142858,0.010683358070564915,1.8487414836133322,1.849606093552515,0.031237439206543312,0.0009757776081824893,0.00018338433810309154,1.7929196419960587,1.9095965874636724,0.0003036909127488163,0.0013945608266990744,2.9626719457840715e-06,8.964002274110849e-05,0.11667694546761376,1.0226956533858158,1.0258648037552973,0.019475635548205052,0.00037930038000650825,3.231036610236865e-05,0.9847607990155883,1.0978522807649014,0.0004610995743540805,0.003172548894700008,2.8851531776396405e-05,0.000991256796175751,0.11309148174931305,7.0,0.5382857142857144,0.020465386075821077,0.026574140729837135,0.10880000000000001,0.1664,0.003949580708542937,68.92307692307692,870.5357142857143,151.19369840960803,70.3125,282.3329843686352,1.0,1.0,171.875,193.34951048069655,60.76698900821896,36911.41270849825,3.18181818181818,0.32829940906106364,0.0,37735.26489750996,0.0,0.06151139297827195,0.07819058971649112,6.3233810085923094,39.9851473798259,-25.832960412020057,20.453665394287302,0.0024042870342568423,0.36920388457141395,-0.00013839319234764863,0.03257976678362391,46.286625806307356
12,2,1,0.07485690663476416,0.10293148262136521,0.08385532935719726,0.007031716261604029,0.00042529764582943165,0.012033278953336179,0.4080528772200519,0.0004494985839290331,0.01216261303176852,-8.629762508757799e-05,0.0036227826651874413,0.39601959826671573,8.0,0.48300000000000004,0.06809267520863883,0.09318896471451221,0.13066666666666668,0.18933333333333335,0.011315704851826707,1.8687746242104368,1.881085201376031,0.03887779982019251,0.0015114833188589606,0.0002792392468432585,1.8383425696944249,1.9780585211291082,0.0005287237016696039,0.0012861568527900828,-9.924960888564826e-06,6.729277478080682e-05,0.1397159514346833,1.03237278762955,1.04395415532904,0.03593443870601531,0.0012912838851163709,0.00023118554776040354,1.0035222812206022,1.1716174657631697,0.00032206541144957077,0.004093818027975907,-3.469742125056495e-05,0.001184023766866971,0.16809518454256756,7.0,0.9577142857142859,0.030532055201390764,0.04459273838676906,0.1216,0.18239999999999998,0.006799844363401407,69.34537246049662,865.234375,154.66727692933102,72.54368894366729,325.885212728347,1.0,1.0,93.75,221.76738391712257,71.60274523368491,49885.83195493328,3.097191081059193,0.14450867052023122,0.0,53357.28204549414,0.0,0.08466345685568911,0.06583581677393198,6.097994456812194,37.18553639531225,-25.832960412020057,22.186581389456723,-0.0030992819568201307,0.3210702524009387,2.0298312076952758e-05,0.030510151313516837,48.01954180147678
13,2,1,0.07345110183483194,0.10196403389149387,0.08382848433783453,0.007027214786378569,0.00015397003694613644,0.014575041739258467,0.4080528772200519,-1.6251612752086336e-05,0.012592443776716332,-4.430632231003765e-05,0.003613827470122563,0.39347783548079346,7.0,12342.846857142855,0.07891849448706599,0.10867750419418645,0.15085714285714283,0.21257142857142855,0.02759352194272747,1.883636700312692,1.9143488082775695,0.0730888000697897,0.00534197269564169,0.0010073925690467687,1.8383425696944249,2.067263984516989,0.0008923358542114906,0.0007802343490121083,1.2179006285457233e-05,2.6940900457851003e-05,0.228921414822564,1.0469483498944165,1.0545822695656313,0.038850582412874854,0.0015093677538195807,0.0003816317679258878,1.0035222812206022,1.1716174657631697,0.0002964521013317951,0.004207226108656835,-8.6520483612867e-06,0.0011827399999382118,0.16809518454256756,6.0,1.5746666666666667,0.035529673930781325,0.053420665813873836,0.1536,0.21760000000000002,0.014523403644383731,66.9281045751634,896.484375,119.2366416374781,115.76099359840036,242.90049617418788,1.0,1.0,85.9375,166.91062873918816,65.26022961532114,34220.1936840494,2.557616326559822,0.4184684056353745,0.0,15796.630844124258,0.0,-0.11987472045025707,-0.013494229168947772,7.087101451434432,50.22700698292403,-22.599945737473707,22.186581389456723,0.0008222491707603054,0.4526353652610812,-5.980969958158627e-05,0.042474696682230535,44.78652712693043
14,2,1,0.06842046189508064,0.0982210096573368,0.08816628367807938,0.007773293577603568,-4.6012122555766783e-05,0.009343620767619954,0.4080528772200519,-0.00031168467083936003,0.012480537836635388,9.371334993230952e-06,0.0035409455538091697,0.39870925645243194,6.0,1.0853333333333335,0.07587047466934378,0.1161978332709156,0.13333333333333333,0.20533333333333334,0.03110875014815653,1.9786109146661472,1.9727247268097865,0.08505849352884984,0.007234947321397389,0.0012017787179106646,1.8476710118821704,2.0870752812652125,0.0008344189615000358,0.0009734265336031106,-8.518242517473184e-06,3.362979874476159e-05,0.23940426938304205,1.0724075048895898,1.0725416845579943,0.04044412872349175,0.0016357275482023704,0.0003800220414669066,1.0035222812206022,1.1716174657631697,0.00017366818865222067,0.004218658927724444,-1.4577289974393449e-06,0.0011720708177313458,0.16809518454256756,7.0,2.1862857142857144,0.028641283220213483,0.04798136582040275,0.13599999999999998,0.22133333333333335,0.012982683774327907,-1.0,-1.0,-1.0,-1.0,-1.0,-1.0,-1.0,-1.0,-1.0,-1.0,-1.0,-1.0,-1.0,-1.0,-1.0,-1.0,-1.0,-1.0,-1.0,-1.0,-1.0,-1.0,-1.0,-1.0,-1.0,-1.0,-1.0
15,2,1,0.063287911210032,0.09384254772927592,0.0899444645558819,0.008090006704244295,-0.0005990574891694308,0.0034289447009811006,0.4080528772200519,-9.819163497827762e-05,0.012692355876109878,0.00012598886003687928,0.003268239522873446,0.4046239325190708,6.0,1.088,0.07608497844181238,0.11920428919847469,0.1312,0.20800000000000002,0.035926184216896126,2.0281735090934636,2.0170615310362505,0.056404959799472944,0.0031815194899801587,0.0006244375417278669,1.8843372532167966,2.0870752812652125,0.0008348351281048581,0.0012653039636246058,7.851844645552266e-06,5.452871225854476e-05,0.2027380280484159,1.0776762085875928,1.0856680104053555,0.02927042443199682,0.0008567577464292364,8.244598501092711e-06,1.041429517428089,1.1716174657631697,0.0002489982419902212,0.004334859798543266,3.592131826652828e-05,0.001116109125217195,0.13018794833508074,6.0,2.050666666666667,0.02446753946148587,0.04253524662849791,0.132,0.22799999999999998,0.014486377395727335,54.23728813559322,1106.25,176.33419974582355,45.9987545121242,269.5784228043236,1.0,1.0,132.8125,186.2661952317465,34.15332564740629,19985.587312798794,5.453823067033946,0.36172906493036716,0.0,90049.5491314097,0.0,-0.07605177087759474,-0.11004433006252455,9.446548554109508,89.23727958514844,-29.609862064710857,27.36245771464237,0.001570623204610647,0.6166809903858215,6.287392705571927e-05,0.05578605278546668,56.97231977935323
16,2,1,0.057490795611154055,0.07790298420968927,0.06403376371166228,0.004100322895080997,3.548948636303188e-05,0.0034289447009811006,0.29414329026305963,-0.0008580522327477517,0.009900087758724864,6.520498165904428e-05,0.002880881263724865,0.29071434556207854,7.0,0.9485714285714286,0.0629749305839987,0.09601025484037619,0.11199999999999999,0.18666666666666665,0.022781026536554116,2.0640824857806797,2.0758363069559214,0.06302913454591397,0.003972671801606926,0.000696965186565788,1.9791633082031863,2.2068813070554993,0.0008701808137877058,0.0016387842181665713,-1.278371893145419e-05,8.014441729295088e-05,0.22771799885231303,1.089484967635896,1.0997803504846095,0.03214776481720686,0.0010334787827424431,0.00024131250014919125,1.0583062975230333,1.1759149417606864,7.4428625700969276e-06,0.0034133219473915562,7.477988524031559e-06,0.0009658745328817392,0.11760864423765316,6.0,2.048,0.023853371572107502,0.041042805032045604,0.11733333333333333,0.2293333333333333,0.007226159932959786,48.06007509386733,1248.4375,124.30470689499252,94.90034978275311,191.79117332835384,1.0,0.8333333333333334,39.0625,134.36086811994198,115.70239526834928,48838.8044059554,1.1612626325351174,0.08012820512820512,0.0,144441.76197367028,0.0,0.16252447706700113,-0.24748987506570103,10.340080783755221,106.91727061458397,-29.609862064710857,27.36245771464237,-0.002102174113285643,0.6550782143111054,-7.700917282952979e-05,0.05755684528764199,56.97231977935323
17,2,1,0.05677326688669266,0.07826110824454587,0.0646321370793825,0.004177313143448091,2.477067018386138e-05,0.0034289447009811006,0.29414329026305963,9.405349916699207e-05,0.009815474174213669,2.4261270196501502e-05,0.002932500886818659,0.29071434556207854,6.0,1.0826666666666667,0.07219517199394099,0.11464417865682046,0.1472,0.22400000000000003,0.03247998774897394,2.087067085600144,2.1085887278438507,0.0584764079923812,0.0034194902916914235,0.0005854630224311346,2.0203302350489127,2.2068813070554993,0.00038804392830980953,0.0017948927604365483,1.2440161664933891e-06,8.843691844565296e-05,0.1865510720065866,1.1156326022577654,1.1106117375699265,0.03138681955531027,0.0009851324417976073,0.00020038500666292442,1.0609447443606355,1.1759149417606864,0.00014977413271984226,0.003380912886592238,1.1595669970896478e-05,0.000989075819731022,0.11497019740005099,5.0,1.2864,0.027876273834405475,0.047478011460099445,0.16,0.256,0.010774419882389799,-1.0,-1.0,-1.0,-1.0,-1.0,-1.0,-1.0,-1.0,-1.0,-1.0,-1.0,-1.0,-1.0,-1.0,-1.0,-1.0,-1.0,-1.0,-1.0,-1.0,-1.0,-1.0,-1.0,-1.0,-1.0,-1.0,-1.0
18,2,1,0.06443555338042917,0.09465013298232344,0.08015160872135141,0.006424280380620615,0.0003531335760949379,0.0034289447009811006,0.3471573835014788,6.322106249923144e-05,0.012105006051192344,-7.456387978411466e-06,0.0036398352280861343,0.3437284388004977,7.0,0.5451428571428573,0.09208661584714357,0.1290637912580593,0.17333333333333334,0.23466666666666666,0.04126109787388655,2.1551787666808107,2.1396492514752583,0.06595940301427222,0.004350642845999184,0.0007821600321540377,2.0203302350489127,2.2175720741783396,0.0006492618617519504,0.0017502222254329172,3.5081604354461613e-06,8.956179382533166e-05,0.19724183912942683,1.1280709860487732,1.1262081209310846,0.039391656096008365,0.0015517025699861929,0.00037317392107179937,1.0609447443606355,1.2291290124416416,0.0002328384326492757,0.004117525129709448,1.1814781901005785e-06,0.0012264019620595325,0.16818426808100617,6.0,0.6306666666666668,0.03564075869837957,0.05398795940227452,0.184,0.256,0.010100723264426485,-1.0,-1.0,-1.0,-1.0,-1.0,-1.0,-1.0,-1.0,-1.0,-1.0,-1.0,-1.0,-1.0,-1.0,-1.0,-1.0,-1.0,-1.0,-1.0,-1.0,-1.0,-1.0,-1.0,-1.0,-1.0,-1.0,-1.0
19,2,1,0.07761567221809021,0.1130110168951891,0.08920520656155383,0.007957568877689485,9.747466217166914e-05,0.007960961138872538,0.3475412424436888,-0.0007057779125785045,0.013732426152247911,-0.00013758123578861548,0.004250255776874089,0.33958028130481627,7.0,0.1417142857142857,0.10259504124632943,0.1365341164605253,0.18057142857142855,0.24000000000000002,0.04034854224167365,2.1972811176027296,2.189702634455133,0.044075935594203246,0.0019426880985043526,0.00046663556932578386,2.0857029124669455,2.3120984331002257,0.0009542550872850793,0.0017795781842170374,-7.012279168713831e-06,9.541665699488782e-05,0.22639552063328017,1.1363780750317172,1.1487364599169827,0.03495989216604741,0.0012221940602616633,0.0001859571156915299,1.0998052064086814,1.2494750294785564,8.316114217241192e-05,0.00461224707833848,-4.404612289116104e-05,0.0014193736838319264,0.14966982306987497,5.0,0.16319999999999996,0.04467548962460928,0.06514749466900302,0.21866666666666665,0.29333333333333333,0.020716127298348538,59.44272445820433,1009.375,217.98975033244108,78.125,322.11762700137973,1.0,1.0,234.375,55.24271728019902,187.82523875267668,32597.091742569868,0.2941176470588235,0.19821605550049554,0.0,76030.17421712233,0.0,0.09576942204404129,-0.08352586532829412,11.239472303035186,126.32573765069506,-31.52423330051784,39.70808539268361,-0.0012899344480998868,0.5806090272635507,-9.334933134141603e-05,0.04643180523891137,71.23231869320145
20,2,1,0.08377384242501054,0.11569004807977097,0.0885821502831328,0.007846797348783524,0.0002544075707171951,0.007960961138872538,0.3475412424436888,0.0005502244889694837,0.01494329760493796,1.1210857258942421e-05,0.004704994177867285,0.33958028130481627,7.0,0.5565714285714286,0.13512224155244368,0.17952982691390437,0.19885714285714284,0.2651428571428572,0.05085384700142951,2.210069684713183,2.2306056242523806,0.07110498055256319,0.005055918259380389,0.0009650463059134377,2.1372053062454586,2.3939589659727654,0.000868776423705588,0.001608339785199527,2.5192374913017104e-05,9.280269160320164e-05,0.2567536597273068,1.1547503252491276,1.1630093316301937,0.04232389971278409,0.001791312486897805,0.0004014746223893425,1.0998052064086814,1.2559907478994785,0.00046959744555193685,0.0050450647890897355,2.581999324211548e-05,0.0016036599368977654,0.1561855414907971,6.0,0.636,0.04992012873775161,0.07111647503388148,0.2293333333333333,0.3093333333333333,0.024332143987302924,-1.0,-1.0,-1.0,-1.0,-1.0,-1.0,-1.0,-1.0,-1.0,-1.0,-1.0,-1.0,-1.0,-1.0,-1.0,-1.0,-1.0,-1.0,-1.0,-1.0,-1.0,-1.0,-1.0,-1.0,-1.0,-1.0,-1.0
21,2,1,0.10496841005245633,0.1283475014612247,0.08778928183193241,0.007706958004566457,8.305962941937327e-06,0.007960961138872538,0.3475412424436888,-0.00016565179074834693,0.01521299063816633,1.3286027821625976e-05,0.004882517207413605,0.33958028130481627,7.0,0.9531428571428572,0.1341673486102519,0.1775699893603037,0.1691428571428571,0.2377142857142857,0.04789770085736493,2.3129060546757976,2.3020889600874868,0.0953294115698984,0.009087696710263077,0.0013195765333645396,2.16194831579598,2.4606168644846185,0.001026676501365048,0.0017364629469194099,-1.2121620989099154e-05,0.00011137229231171378,0.2986685486886387,1.1956985789271346,1.1907219780795764,0.045089346143858795,0.002033049135680714,0.0004363932928398899,1.115156249741398,1.2820281523076327,0.00028323343638916816,0.005174076077379204,-2.5079227812530025e-08,0.0016411270454806534,0.16687190256623463,6.0,1.1013333333333335,0.050614325363780154,0.07126712692536304,0.172,0.256,0.019190796501959193,77.96954314720813,769.53125,79.95894332210437,0.0,31.25,1.0,0.0,62.5,0.0,0.0,0.0,0.6714726882683184,0.32499187520311995,0.0,0.0,0.12024515870251162,-0.1600497903063325,0.005840603659831197,9.387517815414661,88.12549073472763,-38.991655776030356,46.68017742092863,-0.000776083270188103,0.5278755363814295,1.2730172045533277e-06,0.04597747964387836,85.67183319695899
22,3,1,0.0034709613722176515,0.006800654652557866,0.01001295927801877,0.00010025935350326216,-2.853141224678056e-05,0.0001104897295806819,0.054044560952794356,1.4665828330225922e-07,0.0015807676782347306,-1.6430193822945725e-07,0.0005005065367203931,0.05393407122321368,2.0,1.572,0.025233890053041746,0.03422024998144016,0.16,0.21599999999999997,0.007523876922061013,0.6566109721681821,0.6558269466516892,0.0644446609057575,0.004153114319258068,-0.0009296693656417615,0.5403124387526874,0.7687391771769818,-0.000955896309515406,8.768512830986291e-05,1.082133258948371e-06,5.361355639274572e-06,0.2284267384242944,2.3112866850433735,2.3213733185616787,0.11020867173822736,0.012145951326304354,-0.0015715577530476914,2.1254664450033163,2.512221974039928,-0.0015605813779001805,0.0028838936705409103,2.536801468480676e-06,0.0009290782030090686,0.3867555290366118,2.0,0.128,0.03059004981000868,0.043672634747254024,0.096,0.152,0.007299962523714203,66.13981762917933,907.1691176470588,171.11887391376666,144.05538214520138,315.99606900244817,1.0,1.0,125.0,223.16963839196407,106.97706201272773,75002.48431439043,2.0861447696648483,0.3892565200467108,20651.264150506613,368401.26649552764,0.056056441789559694,0.08508367654038693,-0.022166804700152067,2.5552046425051245,6.529070765079742,-14.573160218883997,9.004491682154391,7.004324772408726e-05,0.12167246911348113,7.443372187428689e-07,0.010594717130176767,23.577651901038386
23,3,1,0.002239672863597543,0.003805104641708305,0.004471882027149018,1.999772886473841e-05,-2.4602837238506618e-05,5.435116396459415e-05,0.021378410162717396,-6.706181182902805e-05,0.0007007304323467012,1.0353847464507026e-05,0.00020793309574833148,0.021324058998752803,1.0,3.0,0.012911231112992833,0.017682384222697793,0.16,0.208,0.0036779359183211407,0.6029639396678991,0.6005976433032205,0.06357760808768853,0.0040421122501517175,-0.0009167928233452144,0.49416656672608494,0.7096524003513043,-0.0009021124167120989,0.000131482459329498,-1.897015787425312e-07,7.811289796182348e-06,0.21548583362521934,2.223773335082677,2.2255414638057602,0.10763014473327714,0.011584248055306185,-0.0015479912686393574,2.0492953017225304,2.4248092017712537,-0.0015746456528045302,0.0015064279264386802,1.9293678947678027e-05,0.0006208931804276719,0.3755139000487233,1.0,0.11199999999999999,0.015178077914645982,0.016100882991771037,0.08,0.128,0.002060913022946693,68.57142857142857,875.0,168.73219279264814,143.41409289472332,243.21140128350422,0.8571428571428571,0.8571428571428571,156.25,166.20098633023466,176.38166308159293,92095.18034825235,0.9422804129778005,0.08796622097114708,0.0,68926.8997750377,0.0,0.12023801839738874,0.024399105260059558,1.6465495036536966,2.711125267982234,-6.566708950155922,5.632557201869095,-5.178747670775188e-05,0.07541968244152555,2.1814711785685996e-05,0.006251053779242891,12.199266152025018
24,3,1,0.0010436937023784786,0.002848085747875143,0.004123928811739523,1.700678884429535e-05,-2.6691666636298507e-05,1.6860038409496088e-05,0.021378410162717396,1.5319180714607816e-05,0.0005976024985401381,3.7025121458067294e-07,0.00019885623237217792,0.0213615501243079,1.0,3.0,0.012911231112992833,0.017682384222697793,0.16,0.208,0.0036779359183211407,0.5398910645101619,0.5456981507141543,0.064229964537513,0.004125488344490178,-0.0009262348371897227,0.4362599466748422,0.6561955399845021,-0.0009195569416294504,0.0001444843618448194,6.354723985157786e-07,8.70897383406008e-06,0.2199355933096599,2.1244711923020283,2.13361478409475,0.10889565312215271,0.011858263268900208,-0.0015668864374699875,1.9575464358240704,2.3102217302104213,-0.0014749485292870786,0.0014327015263933488,8.286098913023778e-06,0.0006255898605837189,0.3526752943863509,1.0,0.11199999999999999,0.015178077914645982,0.016100882991771037,0.08,0.128,0.002060913022946693,67.59075907590758,887.6953125,122.31226022547716,104.86226084726573,170.44862679118305,0.8,0.7,93.75,119.22192410584556,151.31261617095907,56673.644220320995,0.7879179352179321,0.07044734061289186,32206.172589274935,141546.48013875278,0.22753072035210212,0.1913165141690304,-0.009237879288293482,1.7828373414399739,3.1785089860327536,-6.566708950155922,5.632557201869095,0.0004630093956604035,0.08578470633830786,3.980798175428271e-05,0.007069697921568228,12.199266152025018
25,3,1,0.0008134704288815182,0.00152025785840018,0.0017644965219350685,3.1134479759209537e-06,-5.131391867711947e-06,1.6860038409496088e-05,0.007589204623191086,-8.087518511779164e-06,0.00023859027353801272,9.111477404971076e-07,9.237341057587694e-05,0.00757234458478159,0.0,0.0,0.0,0.0,0.0,0.0,0.0,0.4936413710383138,0.4925615583454194,0.05963767718755558,0.0035566525403270878,-0.0008587352051163927,0.3964097941248281,0.6024743641834209,-0.0008626110385958935,0.00019472276096310997,1.685143637115046e-07,1.0176802369167163e-05,0.20606457005859286,2.0492280370152764,2.0440913027537095,0.09869856330112563,0.009741406397706303,-0.001420679099331676,1.8781187298597422,2.222326214698161,-0.001442372253034982,0.0009968118776421686,9.58928782401891e-06,0.0004946757154560013,0.3442074848384187,0.0,0.0,0.0,0.0,0.0,0.0,0.0,65.7707509881423,912.2596153846154,143.5379997055395,120.45301395742894,209.88078567708044,0.7142857142857143,0.7142857142857143,62.5,147.9962897700962,170.9302653488986,79473.0109841723,0.8658284679311173,0.08437394532568343,0.0,76415.97979896211,0.0,0.22804284113429812,0.040253472179241724,1.7195237571423092,2.956761951376803,-6.566708950155922,5.632557201869095,0.0007547857206590815,0.07989223599140906,-5.627501907690557e-05,0.006325153547608114,12.199266152025018
26,3,1,0.0008424251889796778,0.0015215424713614658,0.001645243483577976,2.706826120255794e-06,1.0768561247339411e-05,1.6860038409496088e-05,0.006151131161352736,-3.294121131515732e-06,0.0002649063772083635,6.668216865528191e-07,0.00011178927449035128,0.00613427112294324,0.0,0.0,0.0,0.0,0.0,0.0,0.0,0.43592567334227905,0.4417548231628512,0.05737955757690245,0.0032924136277210627,-0.0008267039030617888,0.3421959840161505,0.5394696902676364,-0.0008253903901500171,0.00016609867928903702,4.130181028601012e-08,9.234473839592299e-06,0.19727370625148588,1.9572210660867093,1.9604458484156935,0.0930948034474762,0.008666642428924226,-0.001340181767228294,1.7996335389673161,2.1234759396007408,-0.001355733052636593,0.0010592564488532174,4.461850095950625e-06,0.0005122179802447009,0.3238424006334246,0.0,0.0,0.0,0.0,0.0,0.0,0.0,68.05063291139241,881.6964285714286,117.18218525363113,101.5625,248.28513409485475,1.0,1.0,78.125,160.20388011257717,71.81553246425881,36144.42231455546,2.230769230769228,0.324254215304799,0.0,44868.74460709189,0.0,0.28426713659374225,0.000723774555680486,2.4413093557750196,5.959991370594641,-9.455606111104089,11.814242393256032,-0.001864368903375258,0.1217761987522667,3.864850150087843e-05,0.010972226533219864,21.26984850436012
27,3,1,0.0009932538743036854,0.0016860102840924637,0.0016718149249519523,2.7949651432921016e-06,1.6884749333424652e-06,1.6860038409496088e-05,0.006151131161352736,-1.101465569777234e-05,0.0002746204390785295,-3.030796698960313e-07,0.0001102466520982878,0.00613427112294324,0.0,0.0,0.0,0.0,0.0,0.0,0.0,0.3959363426241478,0.39156370205598123,0.05616453939173955,0.0031544554850862633,-0.0008096464939482044,0.2944502293885006,0.49311617535054264,-0.0008315785550344366,0.00014970689085806415,1.1974544449415194e-06,7.023036681098998e-06,0.19866594596204207,1.8775198987164607,1.878306929437289,0.09231277475462354,0.008521648382897862,-0.0013293911536583155,1.7160811557917255,2.0491607723080225,-0.001391235485827129,0.0008954999241656263,-3.0750895312167683e-06,0.0003821475622727162,0.33307961651629703,0.0,0.0,0.0,0.0,0.0,0.0,0.0,66.66666666666667,900.0,128.6953767623375,0.0,125.0,1.0,1.0,78.125,0.0,0.0,0.0,0.5347489778426733,0.22227161591464772,0.0,11870.188800338226,0.0,0.29368940654964737,0.023991086996355816,2.2870682629012564,5.2306812391701705,-9.455606111104089,11.814242393256032,-0.0005731784963015719,0.11759255461639566,-6.428316743022042e-06,0.010808871648490448,21.26984850436012
28,3,1,0.0012534666419326238,0.0018482711956583598,0.001676873606971446,2.8119050937574273e-06,-1.9388051395419665e-06,1.477948886979764e-05,0.006151131161352736,-1.2680149389353886e-05,0.00030033795156076895,1.2149441429828128e-07,0.00011916328671892029,0.006136351672482938,0.0,0.0,0.0,0.0,0.0,0.0,0.0,0.3417876962715324,0.3441061091431379,0.0558545448622486,0.0031197301817689413,-0.0008053245075467763,0.25372620077609015,0.4355914000097159,-0.0007604060393547062,0.000124976449940917,1.9230946653910063e-07,5.698281094860834e-06,0.18186519923362576,1.7988280541759827,1.8005807681207817,0.09215323794851342,0.008492219264395333,-0.0013274725889888418,1.6511559651733148,1.9568956963493482,-0.0012791410061547765,0.0009005389980573504,-2.411978673973886e-06,0.00038694693796084044,0.3057397311760335,0.0,0.0,0.0,0.0,0.0,0.0,0.0,63.2967032967033,947.9166666666666,119.9048378460556,82.95609602185665,153.29231929959832,1.0,0.75,109.375,102.27365204364096,36.95485923520415,11873.675869937417,2.7675292007664436,0.23454907939486336,0.0,34861.30143760974,0.0,0.14174373305784527,-0.09446566838282998,2.7147576124501396,7.369908894355983,-9.882069866319368,11.814242393256032,-0.0022219108164481713,0.1302792997806045,1.6784757830189007e-05,0.011925451155455204,21.6963122595754
29,3,1,0.0012817634790233897,0.0024102935852889085,0.0028334577284154605,8.028482698717302e-06,8.372687876612301e-06,1.477948886979764e-05,0.011947193158948703,3.356228587485185e-05,0.00040563928353857176,-3.419523083326085e-06,0.00017171667347685892,0.011932413670078905,0.0,0.0,0.0,0.0,0.0,0.0,0.0,0.2940669295188702,0.2981422865347142,0.05171869999527872,0.0026748239292016434,-0.000744952921714886,0.21296083059867227,0.3954628911234675,-0.0007640582075524698,0.00010575499067477842,6.669271394313508e-07,2.813662451927711e-06,0.18250206052479523,1.7154546613782595,1.7258700555794328,0.08433892698539497,0.007113054605047784,-0.0012102696235876118,1.5986585239651347,1.8769210675731796,-0.0011672000453471947,0.0009339451556183223,-7.129042553292534e-06,0.0004098869098718266,0.2782625436080448,0.0,0.0,0.0,0.0,0.0,0.0,0.0,61.36986301369863,977.6785714285714,108.20713967447162,82.95609602185665,153.29231929959832,1.0,0.75,93.75,102.27365204364096,36.95485923520415,11873.675869937417,2.7675292007664436,0.29235491887151,0.0,9785.640949849805,0.0,0.16832977347323846,-0.03940528454056092,2.932200311320543,8.59779866570829,-10.965207073534568,11.814242393256032,-0.00047369736619200427,0.1457011085718652,2.8161789717962607e-05,0.013014040616425459,22.779449466790602
30,3,1,0.0010437251357516297,0.0021148850203394974,0.002747610390576275,7.549362858402711e-06,8.669029669645688e-06,1.477948886979764e-05,0.011947193158948703,-3.569364834753102e-06,0.00038269756336749495,1.9579412202905038e-07,0.00015345311192394901,0.011932413670078905,0.0,0.0,0.0,0.0,0.0,0.0,0.0,0.2534210362129349,0.25360542405930125,0.048904562126179024,0.002391656196753304,-0.0007054884832759085,0.16953958988050744,0.34137940852691434,-0.0007189027637985542,7.183068457178052e-05,9.983920991809015e-07,2.975040799176314e-06,0.1718398186464069,1.650603816494405,1.6520746931599224,0.07972699349050884,0.006356393491035639,-0.0011468169907109071,1.5108409997864847,1.798022569384649,-0.0012008917191111224,0.0009105440460957673,7.217585535702204e-06,0.00037153391864363063,0.2871815695981643,0.0,0.0,0.0,0.0,0.0,0.0,0.0,63.88170055452865,939.2361111111111,167.06405171832512,204.73371377154155,291.1663305247535,0.75,0.5,93.75,203.63142998403694,122.12889219424592,78129.15036362136,1.6673485391168643,0.35511363636363635,0.0,163428.71971477685,0.0,0.15738473731442346,-0.013006417938161485,3.273323056079115,10.714643829459119,-17.15722992516204,9.749506741404588,0.002258942331134968,0.14630362744071035,-8.436133277697847e-05,0.011001911178618467,26.906736666566626
31,3,1,0.0007787351469661536,0.0019666025509411777,0.002861501493997792,8.188190800151596e-06,-4.657345539385635e-06,1.208963550491526e-06,0.011947193158948703,4.233149826030574e-05,0.0004375063154448057,1.0693847795824662e-05,0.00016073253149917718,0.011945984195398211,0.0,0.0,0.0,0.0,0.0,0.0,0.0,0.21256452224580255,0.21204909414830647,0.04719643367151246,0.002227503351309475,-0.0006808561607393382,0.1306746394861009,0.29368362964923983,-0.0006822489755969207,8.125142889468362e-05,3.0591666006505105e-07,5.664078085719413e-06,0.16300899016313894,1.5973375228868516,1.5834390820438473,0.0783709321064717,0.006142002999237197,-0.0011273942731121866,1.4573772449607139,1.7148281669647933,-0.0010490098376920557,0.0009432297920519957,1.943195616252863e-05,0.0003556086840427148,0.2574509220040795,0.0,0.0,0.0,0.0,0.0,0.0,0.0,65.3061224489796,918.75,190.70182877990447,218.12907907679087,291.0615001593306,0.6666666666666666,0.6666666666666666,46.875,175.93068493806805,138.68257245514945,76650.2110679657,1.2685853876482194,0.2178649237472767,0.0,97307.59186474515,0.0,0.19504060940901463,-0.013003333165982492,3.5866083275276313,12.863759295090551,-17.15722992516204,9.749506741404588,-3.2992537651221204e-05,0.15825685306487328,2.21525645938923e-05,0.011755815659662158,26.906736666566626
32,3,1,0.0011760822976279333,0.00862357833513055,0.024976763116881833,0.0006238386957968287,0.00014128516805513703,1.208963550491526e-06,0.13830323783875872,0.000472230409492077,0.00310229584338755,-3.170901792482225e-05,0.000929575644094489,0.13830202887520823,0.0,0.0,0.0,0.0,0.0,0.0,0.0,0.17093879298924874,0.17849479578946534,0.039347152463396304,0.0015481984069777538,-0.0005265427035653629,0.12430710265297544,0.25311587164977967,-0.00032332155625437926,0.0007564637429259053,1.0320968469066782e-05,2.1050738471819793e-05,0.1288087689968042,1.5236715889294743,1.53914673789267,0.07328156101516538,0.0053701871848194065,-0.000632804409691202,1.4392586826337586,1.7368066219148837,0.00024955297661459995,0.005769746124585049,-3.69417789649736e-05,0.0015405318988694773,0.2975479392811251,2.0,0.128,0.01718878201182905,0.018735677929521688,0.096,0.144,0.002910047476584655,61.79310344827586,970.9821428571429,193.61828966251286,218.33107207003312,282.7650167320915,0.75,0.5,78.125,184.38162064384292,238.31326629171315,138043.42298819672,0.7736943205593352,0.14723203769140164,0.0,27938.771742342356,0.0,0.38931701879443303,0.06563099398505713,3.773675974461986,14.24063036023162,-17.15722992516204,8.801235318487242,-0.0015543936067316767,0.18228059768317856,2.983906113402995e-05,0.015088898486241854,25.95846524364928
33,4,1,0.08755062610222697,0.12068007961139933,0.1441449716861393,0.020777772862397903,0.00044908402574058695,0.009381683862441783,0.7417807856527221,-0.000273072434296524,0.016688446032126773,-5.0730634602723334e-05,0.004799223544053514,0.7323991017902803,6.0,1.088,0.09126075289763913,0.14379814211867947,0.1,0.156,0.033358419314000784,2.3835325628789805,2.4002705930738615,0.08865397006529031,0.007859526408337392,-0.0004934716179732062,2.281258037529274,2.5811777618521248,-0.001252328159454875,0.003204798506353415,7.998051449866391e-06,0.00015748638957335183,0.29991972432285063,2.1780458389938904,2.213213622438738,0.11660282540259079,0.01359621889186707,-3.046065543374926e-05,2.0785060529870454,2.6296838375257634,-0.0010411326294313711,0.011674109231731808,-3.026505258774496e-05,0.003297706942105497,0.551177784538718,5.0,1.2576,0.06843969545920921,0.1062527286957697,0.12,0.188,0.030221184328131433,62.31237322515213,962.890625,163.8647431656193,0.0,46.875,1.0,0.0,85.9375,0.0,0.0,0.0,1.1989230229854906,0.12988699831146902,0.0,39092.05255515886,0.0,-3.3458314875247677,-0.25737322308035815,32.002503795211354,1024.1602491625172,-76.48115378023556,126.09134122748411,-0.010652558901683828,1.3351268312845004,0.0005234695741247441,0.11362910889204153,202.57249500771968
34,4,1,0.09920309051817577,0.1315155056679578,0.1389618705844026,0.019310401476316255,-3.2188101101256955e-05,0.009381683862441783,0.7417807856527221,9.556847176112034e-05,0.017222704491422,-2.3541838922446397e-05,0.005198861361421338,0.7323991017902803,9.0,0.7520000000000001,0.09053758164610531,0.12274891307207764,0.09599999999999999,0.152,0.026898271471142248,2.3423067771439223,2.3607537277334445,0.06660858675897402,0.00443670383002777,3.602191315487913e-05,2.281258037529274,2.5077396454947567,-1.747610949955347e-05,0.003125860962904042,9.597069451670882e-06,0.00016590533698248504,0.22648160796548256,2.1608535255527785,2.19343290047611,0.11268131687806483,0.012697079173374858,3.1719492174750214e-06,2.0785060529870454,2.6296838375257634,3.851117792116332e-05,0.012051736696831789,-1.7676833377342865e-05,0.0036179995468070205,0.551177784538718,7.0,0.9325714285714286,0.06503025221672816,0.09304007522850265,0.11733333333333333,0.17866666666666667,0.02253596420798576,67.36842105263158,890.625,119.33790872280834,7.8125,55.242717280199024,1.0,0.5,54.6875,38.66990209613931,38.66990209613937,4697.816162899781,0.9999999999999986,0.3744617112900206,0.0,3961.730090279141,0.0,-1.7743029051724917,0.02220153432209191,31.9017433870966,1017.7212311361618,-76.48115378023556,126.09134122748411,-0.004352477551390903,1.3646733204372155,0.00021655586714930565,0.1231570031184991,202.57249500771968
35,4,1,0.08923721563580428,0.12674486075191072,0.1406182184342642,0.019773483355626443,-0.0009672501757013064,0.009962791861965671,0.7417807856527221,-0.00013920666343392578,0.01700047517363567,8.937775236645053e-06,0.005110058252783618,0.7318179937907564,7.0,0.9394285714285715,0.10101467024325153,0.14232293170325822,0.1216,0.1856,0.03336820699519025,2.3422110538395433,2.347400129231203,0.08410003245472664,0.007072815458886073,-0.0007453794882467745,2.1643498297362727,2.5077396454947567,-0.000583618562333929,0.00347327226793516,-1.2748606623702123e-05,0.00017265436728493476,0.34338981575848404,2.1608535255527785,2.1808743354603175,0.12409565572777953,0.01539973177050758,-0.0011788074284725637,1.9742527492662378,2.6296838375257634,-0.0005299966370968721,0.011980410197567732,-2.4202913918460374e-06,0.0036114011088114323,0.6554310882595256,5.0,1.2704,0.08416055870938025,0.1238586231869121,0.124,0.196,0.032611600181967446,53.14878892733564,1128.90625,94.64094874676341,23.4375,104.23175050098698,1.0,1.0,62.5,71.81553246425872,16.572815184059777,3739.0781704712654,4.333333333333314,0.2215330084182543,0.0,6034.879033322011,0.0,-1.7924523209641166,-0.11712194749489431,31.42665556280449,987.6346798631504,-122.26436661425294,98.69607866738119,-0.0015747335475123228,1.5415938259919941,0.0007379266291244339,0.13664863357271254,220.96044528163412
36,4,1,0.06943516459466822,0.0764666350867184,0.045872859471939885,0.002104319236132345,-0.0001245040409510591,0.009365432601382607,0.23575546225100702,0.0008504886082534832,0.010212436829505078,0.0003181789006546225,0.0032493313280385584,0.2263900296496244,7.0,0.5200000000000001,0.05376843450442603,0.0640982275136325,0.1024,0.1568,0.008528362595179055,2.293914969875244,2.2838523011302283,0.10317039849499664,0.010644131125616404,-0.0012783916921157875,2.1398326702475825,2.506986921557701,-0.0013522000277210084,0.00274212982016474,1.585718582204678e-05,0.00014402903227620005,0.3671542513101187,2.1163036332757206,2.102407828505731,0.07943762906735245,0.00631033691184228,-0.000967818798392694,1.967396318513354,2.248308880217847,-0.0003425754678083074,0.007587533084596769,0.00022088619740269166,0.0024039535636359785,0.28091256170449275,5.0,1.2704,0.046141230296895944,0.05278653471296217,0.10666666666666667,0.17600000000000002,0.0078031788205618485,53.5191637630662,1121.09375,106.76289350559725,23.4375,104.23175050098698,1.0,1.0,62.5,71.81553246425872,16.572815184059777,3739.0781704712654,4.333333333333314,0.2230649118893598,0.0,2250.6239768480855,0.0,-1.3753362092859778,0.1122267551689931,29.991439938832116,899.486469604574,-122.26436661425294,98.69607866738119,-0.014723214254100421,1.5663905592061649,-0.00016321818234063545,0.13903425059100444,220.96044528163412
37,4,1,0.07751832182555721,0.10365485394766084,0.10155297221822715,0.010313006166356015,0.0003670106441950822,0.009365432601382607,0.5309810714903884,0.00011674544266920244,0.014129906588256727,6.262360395578779e-05,0.0040256447679977376,0.5216156388890059,6.0,0.5826666666666667,0.0947212018688763,0.12490366801498927,0.128,0.1856,0.035788973120751216,2.281380397748113,2.258254081741474,0.08151227961785863,0.006644251728499971,-0.0004501257072329446,2.1398326702475825,2.3811736847779437,0.00015217380604784874,0.0025997610495844927,-6.580360309130228e-06,0.0001110587752034231,0.24134101453036116,2.101769053918761,2.1034976017102824,0.08761529852180427,0.007676440535064878,-5.703187981278694e-05,1.967396318513354,2.358949034141088,0.0001808094906835339,0.00997509116326323,3.9732260632211375e-05,0.002897485887438758,0.3915527156277341,4.0,1.56,0.09799311286925771,0.14019299329264634,0.224,0.288,0.08006486327657633,58.51428571428571,1025.390625,163.49184609708942,32.10632293213009,124.01959270615268,1.0,1.0,117.1875,73.47258322742648,66.49554861876925,15348.56422060666,1.1049248371294418,0.12195121951219513,0.0,80816.24739849544,0.0,-3.3252873993405023,-0.3963272948410636,37.996478267079134,1443.732360700617,-122.26436661425294,116.70186868776284,0.003562153765568299,1.708056164263363,4.819850787065056e-05,0.1404767595308881,238.96623530201578
38,4,1,0.06319681514613865,0.10316606461848729,0.10784166233824283,0.011629824135875582,0.00038303750840744345,0.009365432601382607,0.5309810714903884,0.0014464866253011193,0.015948637065994153,0.00010667269263503315,0.004124572332010599,0.5216156388890059,5.0,1.2736,0.08990688083489838,0.15004809978777514,0.1344,0.20799999999999996,0.03936991323560785,2.252020937202163,2.2425820265420175,0.06873337364431077,0.004724276652528434,0.00018827542723988825,2.1398326702475825,2.376685524106597,-0.000524911889503261,0.002454393368027697,8.228506939289097e-06,9.5044544224002e-05,0.23685285385901444,2.0864153467868927,2.0923378328010456,0.08507883429958607,0.007238408045776424,0.0003939694923666314,1.967396318513354,2.358949034141088,0.000640911960258376,0.011214146083048203,7.461241535830406e-05,0.002946990510714191,0.3915527156277341,4.0,2.286,0.08525932006154946,0.13857558482082422,0.16533333333333333,0.25066666666666665,0.0571599813871953,58.18181818181818,1031.25,123.52647110032731,0.0,78.125,1.0,1.0,117.1875,0.0,0.0,0.0,1.1989230229854493,0.24248302618816686,0.0,19094.99826694855,0.0,-1.2155425012147707,0.43850068091202277,40.67203849745332,1654.2147155383252,-122.26436661425294,116.70186868776284,0.012990915786054325,1.7265798507386305,0.00011902919531730545,0.13758838023676315,238.96623530201578
39,4,1,0.09593576349508623,0.12474898577510744,0.1114728324786187,0.012426192380806186,-2.3901419596672964e-06,0.009365432601382607,0.5309810714903884,0.0006495750756798359,0.017223623629470393,0.00010101139675115905,0.004579145034264111,0.5216156388890059,6.0,1.0853333333333335,0.11804900852163432,0.18957613676602758,0.12266666666666666,0.19466666666666665,0.046366154874587416,2.263064564619916,2.2452866040662105,0.06106630711749967,0.003729093864968791,0.000633233258486461,2.1398326702475825,2.3247586676838816,0.0005107498366532903,0.0016808735450122042,5.091011230324201e-06,8.06167452605158e-05,0.18492599743629912,2.107452659198864,2.1090951375514377,0.08686327345545837,0.0075452282753977395,0.00043524556929989256,1.967396318513354,2.358949034141088,0.0008173392552653096,0.011880823165246003,7.352099340249389e-05,0.0031825689927758795,0.3915527156277341,6.0,2.048,0.09008730538168545,0.14315953812755158,0.1568,0.23679999999999998,0.048398299964487065,62.07852193995381,966.5178571428571,165.44982553755733,187.5,312.5,1.0,1.0,140.625,176.7766952966369,132.58252147247765,73631.07781851078,1.3333333333333335,0.2957267484844004,0.0,9466.139180500322,0.0,-1.4421578273377667,0.006024372449170231,39.32446953150202,1546.4139039340307,-101.59676998848812,116.70186868776284,-0.004205923259704678,1.581428417339939,-0.0004263998388668704,0.12763140551053348,218.29863867625096
40,4,1,0.12269646343055843,0.1512962943013365,0.11142219697718356,0.012414905979222292,-0.0002487659116808523,0.026595687845071707,0.5309810714903884,-0.0010292088949225278,0.017011543389781697,-0.00033928771471989765,0.005615328242422927,0.5043853836453167,8.0,10800.001000000002,0.13970661602150464,0.18347307017809436,0.12571428571428572,12342.502857142857,6117.758051563242,2.286716207830718,2.286882862087896,0.035871036210598416,0.0012867312388220628,0.00025457343371396607,2.1845188020147113,2.376554567070221,0.0008089815706780477,0.001692881604284874,-8.157722007034092e-06,8.319682476452846e-05,0.1920357650555098,2.14334052534986,2.1561326091166717,0.06764961434115209,0.00457647032050661,3.440211145487008e-06,2.046690506404161,2.358949034141088,-0.00015101376709271143,0.011827901388637955,-0.00024283610434543457,0.004082921696927949,0.31225852773692697,8.0,10800.36,0.09996389413721851,0.11277141855546063,0.11885714285714286,0.18514285714285714,0.02343234320938339,65.97938144329896,909.375,141.62836492030826,0.0,31.25,1.0,0.0,93.75,0.0,0.0,0.0,1.198923023001136,0.22007042253521125,0.0,28080.4707346402,0.0,-3.0058602766531557,-0.044516898300005776,46.071372462597964,2122.5713605874303,-124.4097260283536,191.76899138557715,0.026842873476961727,1.807062048121131,5.551889271556664e-05,0.14293274339251377,316.17871741393077
41,4,1,0.11278822748063796,0.12965527762547238,0.08313548497607375,0.006911508862206982,3.355811515319861e-05,0.024427615200504838,0.3997394341322789,9.414284746603243e-06,0.015583275074464827,4.998006791432655e-05,0.005544471105742677,0.37531181893177407,8.0,0.132,0.13286127576301543,0.14957377972280886,0.12342857142857143,0.18285714285714283,0.030009341801527385,2.2927666540614036,2.3095159561028566,0.04317532336712057,0.0018641085478554276,0.0005134920929595815,2.2498869733194202,2.3799329790314836,0.000246023541472834,0.0012886770366629583,1.1284975938343859e-05,7.589740572367443e-05,0.13004600571206337,2.150735886054914,2.1568008152763207,0.059520515001405684,0.0035426917060325594,0.00037689101686108444,2.046690506404161,2.3033461309085324,0.00016926624659404643,0.010975924452206949,5.205016118441513e-05,0.004043080057521558,0.2566556245043712,8.0,0.489,0.09440393828646121,0.1056491361163438,0.13028571428571428,0.18742857142857144,0.021934784298339005,68.08510638297872,881.25,84.77912478906585,31.25,44.19417382415922,0.5,0.5,62.5,22.097086912079607,110.48543456039806,7669.903939428205,0.19999999999999996,0.22706630336058128,0.0,12824.270103627216,0.0,0.9655819797237326,0.04951192463386451,44.345042506101166,1966.4827948679192,-124.4097260283536,191.76899138557715,0.004230302619662499,1.8002586927591469,1.3371423421256144e-05,0.14553913723953507,316.17871741393077
42,4,1,0.11242825121558533,0.12414790087368922,0.0813102439762589,0.006611355775478747,-0.00041632157393656514,0.005868856582023312,0.3997394341322789,-0.0015415340411364113,0.013952454511325492,2.5066102978599874e-05,0.005123432030363904,0.3938705775502556,8.0,0.128,0.12263867548834018,0.12986922084449354,0.128,0.18285714285714283,0.024876454166168065,2.3484669254036064,2.333390993301376,0.04322734029929395,0.0018686029493509627,0.0005231682094854563,2.251799149784496,2.392541097228637,0.00035950945745971224,0.0012775975371813806,-2.3073607780902763e-07,9.273113967912077e-05,0.14074194744414115,2.160056692756667,2.169462407035421,0.050237974486049435,0.002523854080460954,7.272072876151576e-05,2.0782815856806716,2.3033461309085324,-0.0008110141757596399,0.00978601631385182,1.8827685837441897e-05,0.0037593916635661226,0.2250645452278608,8.0,0.134,0.08786673575569615,0.09292795503312223,0.13028571428571428,0.18742857142857144,0.01778431231963209,61.19521912350598,980.46875,144.84762670108717,150.47937722076736,190.7274314958391,0.75,0.5,171.875,106.40498806153309,180.45014785079843,60321.07911558749,0.5896641777734197,0.1275347532202525,0.0,20589.328764730897,0.0,-1.4422434239337734,-1.4270680542481236,47.98073408308031,2302.1508431512643,-210.6980883345162,191.76899138557715,-0.0108964850560615,2.142164430777791,-0.0001822068406375264,0.17923322816598466,402.46707972009335
43,4,1,0.11042725136649506,0.13880870811449011,0.1109283273267525,0.012305093803511143,-8.835299772477347e-05,0.005868856582023312,0.5921895827589205,-0.0003351796166243743,0.019345588934142562,-5.208862353050518e-05,0.006466486287156512,0.5863207261768972,8.0,0.124,0.15177519088663194,0.17420067167120024,0.122,0.174,0.03553529079970827,2.3667471658428507,2.361666747221103,0.03663878842311686,0.0013424008171139218,0.0003809998272833533,2.282682184706531,2.4257209966201705,0.000372809242393037,0.0017288779252485975,-1.5125739253068574e-05,0.00012738559019782926,0.14303881191363965,2.1852234758171907,2.1990691664925133,0.07190646791644688,0.005170540128219004,0.0002014443489067708,2.1119609506122754,2.507528446087183,4.2347345464982535e-05,0.013460797733106721,-4.4855591727959813e-05,0.004619225350129069,0.39556749547490755,8.0,0.136,0.10797957049692153,0.12521128135662618,0.126,0.182,0.02673178460442091,70.45871559633028,851.5625,91.44296805249706,0.0,62.5,1.0,1.0,85.9375,44.194173824159215,121.5339780164378,16873.788666742043,0.36363636363636376,0.2937720329024677,0.0,0.0,0.29638431581004665,1.62105805337478,0.21145630054258494,46.66377690182171,2177.5080747429897,-210.6980883345162,191.76899138557715,0.0017676838167826078,2.089991405430035,0.0001412833211931621,0.17411485833562781,402.46707972009335
44,17,1,0.034999740081188446,0.2500045082985877,0.469199173563262,0.22014786447244808,-0.0042818469782278734,0.00016230275241585688,2.2364772893768174,-0.0003048186627581385,0.054094479711031554,7.77640728510575e-06,0.019861038774959237,2.2363149866244014,3.0,1.0853333333333335,0.656892416619184,0.6945800205751809,0.184,0.23199999999999998,0.2469788728303337,-0.048962203830633766,-0.13682402354748738,0.1721142469258087,0.029623313994838252,0.001783809388874393,-0.5471593636020177,0.0017728192410315646,0.0001885881192985097,0.0072221702678217335,2.5089612421890818e-05,0.0004265060132660901,0.5489321828430492,1.0809631678747387,1.10834460993441,0.08963588950509628,0.00803459268736983,-0.000617633443448303,1.063987237897193,1.5528260231785347,-2.922604940967984e-05,0.013228053847830813,8.61921177410426e-06,0.005085663801057668,0.4888387852813416,2.0,1.588,0.2375433451403124,0.24049187701988495,0.176,0.22399999999999998,0.10134249875764802,111.30434782608695,539.0625,168.17755916367082,170.06801244803412,309.5783562856996,1.0,0.6666666666666666,62.5,215.99064319440058,161.3556274292484,109488.60611685946,1.3386000019683768,0.46412327114081503,0.0,113766.7433710371,0.0,0.08595004401343131,0.07707497265275026,11.341660364313448,128.63325981943865,-59.42347550623203,80.62330702497381,0.0033132374360009655,0.6047170796208133,4.5419668445265326e-05,0.058622773518525545,140.04678253120585
45,17,1,0.02833582269848668,0.0615328199658486,0.08804612454892638,0.007752120048085055,-0.00010186649430273216,0.00016230275241585688,0.42309152197137034,-0.0013475118512664024,0.010791759377104861,3.5519245137831634e-05,0.004445150078076216,0.4229292192189545,4.0,0.8460000000000001,0.12475408904666879,0.10070479704985796,0.19999999999999998,0.24799999999999997,0.04587092441072068,-0.0463670874409739,-0.05651953931189532,0.059559397288159274,0.003547321805328794,0.00025025425044235635,-0.3600372991837202,0.0017728192410315646,0.0013950204029878344,0.0043471708835121645,-5.2277173331621796e-05,0.00022200318625035725,0.36181011842475175,1.079271049409329,1.0816222653930092,0.013520007004082608,0.00018279058939044276,3.637530104037735e-05,1.063987237897193,1.1500110227679436,1.170207379972051e-05,0.0027829145777510463,-4.20118486991472e-06,0.001449046573636076,0.08602378487075057,2.0,0.152,0.06477468249431517,0.052213023112436474,0.208,0.24,0.01820739879333333,108.79328436516263,551.5046296296297,162.92539221263397,147.6045709827443,246.06274606286908,1.0,0.7,62.5,171.96020615247005,184.82466353276558,99847.62843590796,0.930396424728159,0.13442667025137786,38317.827164675,233394.471603786,0.16417624162805333,0.19066206473969474,-0.14049601250690397,5.942966007977687,35.318844971978244,-30.72597955550903,23.533640810347308,0.003023011231049367,0.3401610423713859,0.00013268680023012858,0.035138225006532416,54.259620365856335
46,17,1,0.016697980717419677,0.04237462508117398,0.06211253257329402,0.003857966702668511,0.0001679258751450244,0.00016230275241585688,0.31042572771714383,-0.00014515361039635499,0.00963705678584073,1.091982828928907e-05,0.004411768553661807,0.310263424964728,3.0,1.0746666666666667,0.16072534425617294,0.12757859449174114,0.19999999999999998,0.24799999999999997,0.04587092441072068,-0.02780953039028755,-0.027723481521244035,0.03599568441700701,0.0012956892966487616,0.00020241565428418744,-0.08165181372805841,0.03159780343931384,0.000382967043041945,0.0014032010989446977,1.909313637271648e-06,8.805971080802545e-05,0.11324961716737225,1.0831192591731769,1.084000143565414,0.014058604889259793,0.00019764437143231938,9.132699827731575e-05,1.063987237897193,1.1500110227679436,5.791839474269071e-05,0.0027740637570032828,1.9055328409629813e-06,0.0014448021885051193,0.08602378487075057,2.0,0.152,0.06477468249431517,0.052213023112436474,0.208,0.24,0.01820739879333333,119.53307392996109,501.953125,151.8195106643391,130.3392143096697,183.4364931273752,0.8695652173913043,0.5652173913043478,46.875,129.6949551743795,153.59421859273684,62581.76751672395,0.8443999804333293,0.5483549351944168,46694.536668930654,297741.35751314106,0.15682919248754265,0.2662218849970164,-0.025241758555613815,5.796695319502071,33.60167662713721,-30.72597955550903,23.533640810347308,0.000730875292569991,0.32439212497433617,2.2557559435942437e-05,0.03392014058617355,54.259620365856335
47,17,1,0.02021762011769558,0.0416259906079557,0.06135521494924101,0.0037644624014675676,4.64061056036395e-05,0.00016230275241585688,0.31042572771714383,3.923138414251842e-05,0.00933764548665419,-1.110971264186916e-06,0.004290111963795409,0.310263424964728,4.0,0.8260000000000001,0.1129660158023981,0.08744910159493295,0.14933333333333332,0.18666666666666665,0.026799772807142238,-0.01490579565104111,-0.01988640626469318,0.03402082258810393,0.0011574163695712426,0.0002171089043799594,-0.08165181372805841,0.03159780343931384,-7.267004854024743e-05,0.0012321674026049485,1.7791045397016805e-06,5.699149217916791e-05,0.11324961716737225,1.0858470192421246,1.0857406280633934,0.01330196581350461,0.00017694229450364535,6.498142887175356e-05,1.0668086727676325,1.1500110227679436,-6.0151572777074796e-06,0.0027223319997478745,-1.7108649892518904e-06,0.001437788991775974,0.08320235000031118,1.0,0.128,0.09726089931542248,0.07586416163888887,0.208,0.24,0.01820739879333333,116.45412130637635,515.224358974359,158.85201945876403,143.19775861570724,210.84791969117276,0.8571428571428571,0.7619047619047619,62.5,148.1383674374383,132.57834584230253,61700.69031187667,1.1173647287291084,0.6476038656969214,78981.58889526331,117489.5116839553,0.6722437412772843,0.4149180863817911,-0.026301412131889072,5.283539717733119,27.91579194886337,-27.523187580111546,23.533640810347308,0.0013269075033908232,0.2724208082741968,-5.36714855004157e-06,0.027895205643771175,51.056828390458854
48,17,1,0.02372510641791581,0.04527602716123536,0.059353949140337973,0.003522891278553827,-0.000386002146634467,0.0016320498052865564,0.31042572771714383,2.9575210312194137e-05,0.009358630213834101,-1.5863851386838644e-05,0.004303721877884431,0.30879367791185725,5.0,0.6768000000000001,0.09496864920059625,0.07116483174570964,0.15999999999999998,0.20800000000000002,0.01795454894502031,-0.01564494012471246,-0.0180112162957996,0.03310785509229832,0.0010961300688126238,0.00021019894596222422,-0.08165181372805841,0.03159780343931384,0.00012046276736192967,0.0011533004966222632,2.3413417071553125e-06,5.65469404026243e-05,0.11324961716737225,1.0858470192421246,1.0871296827943326,0.012211202972409903,0.00014911347803339247,-4.390154912437181e-05,1.066871713183668,1.1500110227679436,4.0430714669418646e-05,0.002730232701905074,-1.349672070185178e-06,0.0014420629001428706,0.08313930958427562,1.0,0.128,0.09726089931542248,0.07586416163888887,0.208,0.24,0.01820739879333333,104.03940886699506,576.7045454545455,162.23680409925132,152.2212826838275,206.35453474643262,0.6666666666666666,0.5833333333333334,46.875,145.77228539931104,113.97134747253301,52193.99243389306,1.2790257256056574,0.23664904945965137,0.0,74544.79573740602,0.0,0.4700297155424231,-0.1355583800696674,5.3490276753703565,28.612097071878004,-27.523187580111546,23.533640810347308,-0.0009722638594522381,0.28209452572585936,5.237679763034978e-05,0.028702383568294135,51.056828390458854
49,17,1,0.020942538303814935,0.028370049745187146,0.02316283362239468,0.0005365168614187376,1.0897017240800773e-05,0.0016320498052865564,0.10550913194581805,-0.0002496523883538258,0.0034841387811941284,2.356142699359788e-05,0.0015903558965426636,0.1038770821405315,5.0,0.0896,0.046053848627068066,0.03073099407952388,0.11839999999999999,0.15360000000000001,0.005109601849887223,-0.01564494012471246,-0.013829287159045781,0.02756450091679032,0.0007598017107917343,-0.00034362527430675387,-0.07232507112027109,0.03159780343931384,-0.00016471313421021229,0.0009625206080850399,-1.2956545116510227e-05,3.78397336738226e-05,0.10392287455958493,1.082745229342898,1.0839777350321824,0.006822578131263873,4.654757235720004e-05,-8.270769662088322e-05,1.071829132679298,1.098810560233598,-0.00010135906802744566,0.001356465157601167,6.538801721071389e-06,0.0008443972662000065,0.026981427554300108,1.0,0.128,0.04071200795274432,0.022412857432568156,0.064,0.096,0.002151634313526543,114.21538461538462,525.323275862069,144.45886136314965,140.73008856928828,180.5147994788304,0.7058823529411765,0.5294117647058824,31.25,124.54637629660655,103.93753634725866,40668.0536016198,1.1982810125544356,0.1314060446780552,136623.10591252413,169463.5132822438,0.8062095684572317,0.3513345483368292,-0.03873537538787735,6.345630141314533,40.26702189035951,-30.818540961465278,30.2495061815141,-0.006047575940870262,0.29983045485179466,7.543463512134877e-05,0.027907852644660662,61.06804714297938
50,17,1,0.023217376772168445,0.031074413480318728,0.023101851897456675,0.0005336955610920225,9.541451301601368e-05,0.0037211262567990295,0.10469415727817917,-4.334132090284999e-05,0.004056360304134553,-1.4311322147271696e-05,0.0019580477065043234,0.10097303102138014,6.0,0.08800000000000001,0.049044521641260885,0.032032814634127396,0.11199999999999999,0.14666666666666667,0.004977450666506058,-0.022617013623925653,-0.03528120605071138,0.02796777961690262,0.0007821966966996337,-0.000382942166718031,-0.0737368804312778,0.018122799211767404,-0.0003572290935806089,0.00043946121356852445,2.3061947276554795e-06,2.048660656645127e-05,0.0918596796430452,1.07927495615058,1.0793545194305652,0.006840558013359126,4.6793233934131754e-05,-7.129619264471244e-05,1.064854989809589,1.0986725647943145,-9.548920453182249e-05,0.001551741607077065,-2.825462288167287e-06,0.0009436884398372016,0.033817574984725596,2.0,0.10400000000000001,0.030215986917600635,0.01723740214461178,0.064,0.096,0.0016547906058827309,109.91055456171735,545.8984375,108.88124460735234,50.76455387921335,84.62540004829125,0.6666666666666666,0.5,62.5,47.163464261132376,48.858497498160716,7239.28505090984,0.965307299163423,0.22917382834880257,0.0,10949.574549992947,0.0,0.36916124662039507,0.03967517455439906,8.196422870281552,67.18134786847448,-33.666101904519294,30.2495061815141,-0.002155257502467496,0.4182724115405895,-7.117356241719365e-05,0.039375845968215945,63.915608086033394
51,17,1,0.020696251977817742,0.02727528270477112,0.023356969601153407,0.0005455480289492043,2.2010167222129285e-06,0.0009532578517393479,0.10469415727817917,-4.404826234128212e-05,0.0037880329008506304,-5.1672318403835345e-06,0.0018496156541102124,0.10374089942643983,6.0,14399.450666666666,0.04257533937219638,0.03108375614539523,0.112,0.14800000000000002,0.0056823265309780555,-0.06632786840192839,-0.055737268977635666,0.02742265497283616,0.0007520020057592158,-0.0003742962485648994,-0.09572234391920087,-0.015261236773137954,-0.00031583604212643304,0.0004484558626307489,1.5268568367821552e-06,2.5009264143141832e-05,0.08046110714606292,1.0748270427205493,1.0733934691850555,0.007963558164194863,6.341825863451465e-05,-9.162983052651991e-05,1.0582229210426353,1.0986725647943145,-9.20735896810021e-05,0.0014465295814511086,-2.1351802725490717e-06,0.0008895830082323205,0.040449643751679254,3.0,28798.82133333333,0.021030542949341147,0.019445657457147696,0.064,0.096,0.0016547906058827309,115.5300859598854,519.3452380952381,98.21992227692999,72.43329366562037,117.23957176440044,0.8,0.6,62.5,72.12084314277669,104.98442034714007,23786.772704632982,0.6869671033502198,0.18353675323483526,0.0,8248.31951852411,0.0,0.413944602957947,0.08474648423220482,8.280265647117623,68.56279918683624,-33.666101904519294,30.2495061815141,-0.002444124712502996,0.4197482595966811,5.477747428332258e-05,0.03941330590945745,63.915608086033394
52,17,1,0.019872870604901206,0.028256207535780547,0.02528556299444583,0.0006393596959460883,-9.747411537628518e-05,0.0009532578517393479,0.10469415727817917,0.00026104892663490444,0.0038791671688076226,2.793784034175187e-05,0.0018590902419830635,0.10374089942643983,4.0,0.092,0.05537335943457569,0.038299755874194104,0.10666666666666667,0.144,0.006762763019494056,-0.07345730110364135,-0.07877397969810115,0.027039336378983973,0.0007311257118158462,-0.0003392429354227623,-0.18573359460275546,-0.022950436638158878,-0.0006922476400580044,0.001177766005365365,-2.239177870397609e-05,6.560157549313603e-05,0.16278315796459658,1.0656727013967462,1.0679229621971236,0.008809924603408997,7.761477151775117e-05,-0.0001078640607360507,1.0537007872690392,1.0986725647943145,-0.00010935576470102922,0.0014372830431716986,-6.631536070345519e-07,0.0008893761930612051,0.04497177752527537,2.0,0.10400000000000001,0.030215986917600635,0.01723740214461178,0.064,0.096,0.0016547906058827309,73.96468699839487,811.1979166666666,209.19013267896517,124.84365222148863,207.40679382556397,1.0,0.6,195.3125,146.64210258312582,204.01248429936828,93986.46083393236,0.7187898480170603,0.3083564600678384,0.0,211701.88263523878,0.0,0.5398031597430117,-0.03726544439522114,8.50419182621222,72.32127861701471,-33.666101904519294,30.2495061815141,-0.00018942056430531855,0.41993654490392257,-7.219869943347073e-06,0.039271010782136004,63.915608086033394
53,17,1,0.026572965551847086,0.08091342760632074,0.10905668346953425,0.011893360209374183,0.0010382052610076286,0.0009532578517393479,0.4291908217669612,0.0005571211285068312,0.011551886609295129,-6.248344753684316e-05,0.005624951786234989,0.4282375639152219,5.0,0.6672,0.1537910177785859,0.11122489684450429,0.09600000000000002,0.13333333333333333,0.013203080756201841,-0.09208435203871057,-0.14895133092673654,0.11164447408507754,0.01246448859373355,-0.0013197577287796076,-0.4052289944535423,-0.0655276509204612,-0.0008226583725772505,0.003321577197350258,3.779831893387312e-05,0.0001918087300276181,0.3397013435330811,1.061864484841647,1.0635882817274167,0.01064349984871671,0.00011328408902963263,-6.985875983990556e-05,1.0252786652218642,1.0951101205873761,-6.772052800924725e-05,0.0030908241059302956,-7.750115608948227e-06,0.0016475191084451418,0.06983145536551194,4.0,0.1,0.04824305470746504,0.03172532438381381,0.092,0.12,0.0044807188342639755,97.80160857908848,613.4868421052631,162.6835142653118,164.0418307085794,294.6738574961591,1.0,0.8333333333333334,93.75,203.62518544088138,133.19491513067106,85205.77107556543,1.5287759689708469,0.3434065934065934,0.0,177383.83383060124,0.0,0.6587742412604302,0.08969435626734928,11.106615890796002,123.35691654568227,-35.361462127970306,53.062050690000135,0.004213364884262125,0.5764706196822011,-0.000150447560575094,0.06045048452090206,88.42351281797045
54,17,1,0.04060304459743411,0.13363779033984433,0.17620060042655664,0.031046651590679066,0.0017249436874222344,0.0009532578517393479,0.6882902865713345,0.0028682138599537255,0.019956229062200105,9.950690018029118e-05,0.009787794202355028,0.6873370287195951,6.0,0.5906666666666668,0.25751651024703637,0.19941353470910653,0.10400000000000001,0.144,0.017646273759502645,-0.15229144797968902,-0.20106185174888092,0.1315370479707666,0.017301994988863756,-0.0014096470687710106,-0.6466641519839473,-0.06737749037650731,-0.0024641897471388416,0.0067167716065610296,-9.794751135063286e-05,0.0003340887254695797,0.57928666160744,1.0601082600062872,1.063719926439258,0.018952897317061138,0.00035921231671106333,7.754380745286228e-05,1.0252786652218642,1.175825083798402,9.843152818583094e-05,0.0052676142455403635,-2.658135145182372e-07,0.002983556264804721,0.15054641857653772,5.0,0.11839999999999999,0.07347146867876742,0.047991257899872866,0.096,0.128,0.0066979445619660795,87.27272727272727,687.5,204.72924192699,189.96834037383113,371.44896063543223,1.0,0.9285714285714286,156.25,261.27992547822754,151.77750765629648,124584.30482680899,1.7214667015741338,0.23288309268747087,26719.424756991215,301937.56895492686,0.08849321020061562,0.6865087776596197,-0.42095739287438877,11.907842405531094,141.79671075496455,-56.579584505155054,53.062050690000135,-0.0036638695651724255,0.5831192401934249,0.0005515381445338858,0.06297390600603667,109.64163519515519
55,10,1,0.008536565761993,0.011542208553967877,0.010348620256639395,0.0001070939412161272,-7.760096029531508e-05,0.00041416169338900433,0.044915611650770376,-0.00010408910404357772,0.0014918501699972679,4.669167194205042e-06,0.0005972625694673404,0.044501449957381374,4.0,0.128,0.018163927908483875,0.017705350763484975,0.11733333333333333,0.18133333333333332,0.0035306395585932497,1.4116183400981464,1.4146310945002196,0.09856904458641663,0.009715856550678989,-0.0014213310958651343,1.250709171917189,1.5952319209751606,-0.001441668917797224,0.0002063063530849575,1.8903970783088845e-06,1.0931091527402733e-05,0.34452274905797164,2.070791951736808,2.0750460696026725,0.08017205738753,0.006427558785749404,-0.0011487269646064473,1.9469893567165242,2.2288437618048835,-0.0011741373139182761,0.0014126778582545943,-2.520774329136758e-06,0.0005615462662586369,0.28185440508835935,1.0,0.096,0.019790821513463897,0.01674806478337798,0.064,0.096,0.0016078142192042862,83.90745501285346,715.0735294117648,157.94388929919074,161.70330603816817,208.54713731466768,0.7142857142857143,0.42857142857142855,140.625,130.91855623763553,172.67035362333675,71018.0688147297,0.7581993868109019,0.08228420966016621,0.0,51514.8405322384,0.0,1.5486003404517656,0.07142995406548734,9.757554572900972,95.20987124314065,-32.54465249005254,47.435723622822074,-0.0021610102414819834,0.5548662344315516,-0.001294717545025852,0.059271957250751815,79.98037611287461
56,10,1,0.005446285988059077,0.006557810007021273,0.004368724071512243,1.908575001301051e-05,-1.565513489835173e-05,0.00041416169338900433,0.020124036787426074,-5.6060050346845306e-05,0.0009076794235849015,2.605164062538915e-07,0.0003900151863648932,0.019709875094037068,2.0,0.12,0.014885732373518104,0.014428666611441456,0.144,0.208,0.0034109205096571654,1.3280875325498265,1.3319865857209485,0.09165167631862299,0.008400029772013639,-0.0013217556680669299,1.1828247924231903,1.4977909854101341,-0.001318111816589856,0.00020428976645786204,2.013438376335941e-06,1.0358517201832866e-05,0.31496619298694384,2.0047252349604574,2.0077929639367587,0.07129504016677315,0.005082982752381798,-0.001026663430166466,1.8878380199049056,2.140575698919274,-0.0010548557625984264,0.0009705886114957659,9.843443690815227e-06,0.00040843616442530446,0.2527376790143685,0.0,0.0,0.0,0.0,0.0,0.0,0.0,83.93442622950819,714.84375,149.37001495342867,147.8882381718821,188.689801382675,0.5833333333333334,0.4166666666666667,85.9375,129.2411999341412,150.87319987073948,61258.02004760617,0.8566213220430701,0.06997900629811056,67566.14802130105,190258.11499769255,0.35512886281944134,1.5208934349595573,0.08003107274978616,8.99874565924877,80.97742343984858,-37.12828204921127,22.273347888614275,-0.0032550390759383215,0.43563606429370144,-5.139923522953765e-05,0.03841457211026735,59.40162993782555
57,10,1,0.005217884030226019,0.006126709745603267,0.004259581520208659,1.814403472730311e-05,-2.1402427679571773e-05,0.00041416169338900433,0.020124036787426074,2.6362215832255504e-06,0.00085935560059297,-7.096185869079551e-07,0.00035703505701226694,0.019709875094037068,2.0,43198.200000000004,0.014885732373518104,0.01436534830057868,0.144,0.208,0.0033845800923382506,1.2500856090706383,1.2556795825361413,0.08721748788473349,0.007606890192923634,-0.0012571127641692018,1.111169186394314,1.411096193226439,-0.001254178853473494,0.00015406925115389494,-2.6580353436287767e-07,8.118343760313261e-06,0.2999270068321249,1.9463833505334636,1.9489836999160086,0.0682021572618373,0.004651534255168386,-0.0009813522225561163,1.8365857911233174,2.0721008955059403,-0.0009540652057980437,0.0009011439202315471,-6.4449591606156415e-06,0.0003721791483910316,0.2355151043826229,0.0,0.0,0.0,0.0,0.0,0.0,0.0,92.9032258064516,645.8333333333334,155.3795196893364,210.9785768189349,302.66646303682575,0.5555555555555556,0.5555555555555556,93.75,212.74269002833873,120.80639067440832,80741.0565622476,1.7610218204574357,0.5902752158193757,6696.476918564599,82558.5267485898,0.08111187520287216,1.684344662951709,-0.056595965476539785,9.59215082820572,92.00935751104768,-37.12828204921127,22.273347888614275,0.00040774521731541945,0.4646025941240543,-7.4040969959900995e-06,0.04099293466655209,59.40162993782555
58,10,1,0.004499412631504827,0.005132639948283693,0.0035750830389208984,1.2781218735179887e-05,-1.1580458190491895e-05,0.00041416169338900433,0.016138054829230496,-1.2532887217255485e-05,0.0006595672394982903,-4.461622640609781e-07,0.0002960678390672106,0.01572389313584149,0.0,0.0,0.0,0.0,0.0,0.0,0.0,1.1822526316523438,1.1820582661452164,0.08055175373444362,0.0064885850296944525,-0.0011622938121332298,1.047153264269215,1.3273324760986016,-0.0011729072956163798,0.00010080016170815591,1.4797868730924423e-06,4.6236339233356576e-06,0.28017921182938665,1.890154871895183,1.8918044764786945,0.06243320284853198,0.003897904817925942,-0.0008994177591240975,1.785271670320879,2.0043896624344,-0.0009180316055152057,0.0007676880495884791,-8.20023817993699e-06,0.0003400453211498021,0.2191179921135209,0.0,0.0,0.0,0.0,0.0,0.0,0.0,97.85932721712538,613.125,154.25476086656127,206.68291581785908,310.5407330367467,0.5833333333333334,0.5833333333333334,78.125,209.9142490887317,110.05493025580955,72577.38149490574,1.9073588852476766,0.5876207887176809,16755.693011888015,165920.99849614908,0.10098597021326933,1.0599053104683271,-0.015082331849132618,8.68582183986194,75.44350103382266,-37.12828204921127,22.273347888614275,-0.004668798748669728,0.434587164097098,-3.471158936747093e-05,0.03842251367389104,59.40162993782555
59,10,1,0.003544576729092242,0.0038019342040741494,0.002535271263916941,6.427600381643002e-06,-9.051241963883339e-06,0.00011545471828356405,0.010271226842354774,-1.9784198501356393e-05,0.0004962846688554832,2.304734257578232e-06,0.00020470827731054113,0.01015577212407121,0.0,0.0,0.0,0.0,0.0,0.0,0.0,1.1106170157604693,1.113089264626366,0.0781273358815557,0.00610388061194942,-0.0011275109194836832,0.9826832212990226,1.2494620462240875,-0.001115728173174335,9.659854936421639e-05,2.091058128966238e-06,5.887373065240822e-06,0.2667788249250649,1.8360250225545893,1.8378527804251408,0.060394310281381744,0.003647472714363813,-0.0008706663420423406,1.7367069834970796,1.945777344350403,-0.0008753445011459402,0.00065663295116254,-6.312506360808823e-07,0.0002975498366184897,0.2090703608533233,0.0,0.0,0.0,0.0,0.0,0.0,0.0,92.76962899050905,646.7633928571429,156.60335523142064,192.87542024419545,274.4957201681385,0.75,0.625,85.9375,194.09287170496418,110.1396264052475,67158.82008503884,1.762243781278314,0.38684719535783363,42976.10961313677,158323.4304086832,0.2714450381867153,1.0470601962420267,-0.0663495481308208,8.345729164436445,69.65119528612504,-37.12828204921127,22.228773418374697,0.0018252332695427897,0.4276714132206944,0.0001258048401395537,0.04087424079394678,59.357055467585965
60,10,1,0.004204072418111654,0.008823869731999619,0.012861290986363938,0.00016541280583592626,9.141492183542266e-05,0.00011545471828356405,0.0617965679711993,2.550304573408072e-05,0.0015315354798773034,-1.3118374591477644e-05,0.0005696297096502643,0.06168111325291573,2.0,1.548,0.03006436255415127,0.03347594561630125,0.128,0.192,0.007378246691500899,1.0465786781052073,1.0517151871559973,0.06901736776167916,0.00476339705275087,-0.0009868924897898132,0.9627232103842758,1.1816804708814976,-0.0009153439774799914,0.0003617014473178215,3.533428865273742e-06,8.23884405733008e-06,0.21895726049722186,1.7848647710090308,1.7947404439737975,0.0496818663134549,0.002468287840388005,-0.0006866509380161707,1.722087056952575,1.890755071997413,-0.0006837547091313322,0.0016457132304876067,-9.16866565270393e-06,0.0007601590918554102,0.16866801504483808,1.0,3.0,0.017379993473020328,0.03015000959688785,0.128,0.208,0.006271201996152672,95.35816618911176,629.2067307692307,152.38967455647222,172.70161074572138,243.65315918158473,0.8333333333333334,0.6666666666666666,31.25,171.934175419209,115.43833468386197,62353.68660267264,1.4894027697997019,0.2446932158805897,87689.70436223151,309851.12989092595,0.28300592091789406,0.8789082608906422,-0.03285099471008877,7.935320755127865,62.969315486763065,-34.431494873521764,21.00556117270816,-0.000421271368394273,0.446869263964868,4.1206514229303214e-05,0.049270026820288394,55.43705604622993
61,10,1,0.0036612587576071577,0.009318569632724484,0.01323841657830087,0.0001752556735006313,6.112738155650227e-05,0.00011545471828356405,0.0617965679711993,2.8296693646612833e-05,0.0016025616869818754,-4.802889811996056e-06,0.0005976895749059854,0.06168111325291573,3.0,1.0746666666666667,0.02426772686989151,0.027559979376626877,0.128,0.184,0.005073191472710924,0.9823177951411886,1.000668128848125,0.05384576820825002,0.002899366753936588,-0.0007596531133754787,0.911399004226151,1.1100648451266246,-0.0008326030683013376,0.00035730714066859197,-4.7457579025432517e-07,1.2211791071594285e-05,0.19866584090047357,1.7509761444434089,1.7559584048198977,0.039043034950325996,0.0015243585781323774,-0.0005352930083020452,1.6920887152589863,1.8354642539858612,-0.0006011967679060861,0.0016743200381168339,-5.273667508802945e-07,0.000783801181083871,0.14337553872687492,1.0,3.0,0.017379993473020328,0.03015000959688785,0.128,0.208,0.006271201996152672,93.92285983066793,638.8221153846154,151.1379439209113,162.98942222675834,207.80368872297478,0.8125,0.5,31.25,145.6617526717506,105.31491964486648,48193.149015479765,1.3831065262446964,0.24102193299590263,15003.280046099339,342600.8401384671,0.043792303720082956,0.2785123055738654,-0.06258538424060399,8.235365631142447,67.82124707860224,-27.746205694616414,40.453615165054146,-0.0007674984453163984,0.4485667552841873,-3.455957049228406e-05,0.04876836633885339,68.19982085967055
62,10,1,0.003362128839324424,0.009461825134695503,0.013324894674364103,0.00017755281808289685,-5.822365773865195e-06,7.658100764250163e-05,0.0617965679711993,-1.4305838796825452e-05,0.0016257465749013778,1.5782460339308829e-06,0.0006025031001278856,0.061719986963556794,3.0,1.0746666666666667,0.02426772686989151,0.027559979376626877,0.128,0.184,0.005073191472710924,0.9625655422400248,0.9532346845443613,0.04666130076537969,0.0021772769891172236,-0.0006639535979705982,0.8785101126021779,1.0460040919411995,-0.0007010990349001573,0.0003862446639230561,3.189302894631684e-06,1.6592950251699508e-05,0.16749397933902155,1.7231502874123588,1.7195851539734395,0.03739820042102313,0.0013986253947310147,-0.0005135964016939591,1.6541635584676244,1.7844578716971826,-0.0005408179239726252,0.0017456639202885899,2.8281930613056895e-06,0.0008263940162441458,0.1302943132295582,1.0,3.0,0.017379993473020328,0.03015000959688785,0.128,0.208,0.006271201996152672,92.9032258064516,645.8333333333334,122.1145133269562,133.39842161318435,190.08632907181936,0.9166666666666666,0.6666666666666666,78.125,134.36086811994198,102.39376693404948,43221.13767897946,1.312197725926834,0.5902316659288771,24487.61822874683,34849.03994792295,0.7026769823599207,0.8815520741196858,-0.13178813343734416,10.670319909650933,113.85572697429309,-74.25747546026508,40.453615165054146,0.00029043350196063337,0.612465066662086,0.00012354311573518217,0.06292360851709951,114.71109062531923
63,10,1,0.004852219027944136,0.010116397523801618,0.013311386554891752,0.0001771930120137529,-8.894381611228914e-05,4.4300771748975136e-05,0.0617965679711993,-7.556084366911256e-06,0.0016949724469771095,5.808370868900004e-07,0.0006235361202853741,0.061752267199450324,4.0,0.8380000000000001,0.021221260340600456,0.025068651206071248,0.144,0.208,0.004883539206396454,0.9107949535177439,0.9137166098617691,0.04667793335060822,0.002178829461883823,-0.0006655273073675831,0.8247526873106961,0.9819523689833546,-0.0006585882761745546,0.0003557856475976139,-1.2037724708703392e-06,1.7763217413729675e-05,0.15719968167265852,1.691108372869945,1.6898255546069996,0.041448002085499314,0.0017179368768795555,-0.0005786628758178162,1.6140575300027424,1.7708399978171805,-0.000510443885933654,0.0017915157434267395,-4.115260970018418e-06,0.0008335572612016233,0.15678246781443805,2.0,1.564,0.01358866964823191,0.021013475563698925,0.128,0.2,0.004275787385005296,88.33558863328822,679.2279411764706,173.0090965566536,188.75717856796203,297.9011869521503,0.875,0.75,93.75,208.44520108524625,131.19418456052082,85912.5002675624,1.5888295794779606,0.26001040041601664,0.0,273820.0158277202,0.0,0.4893882280865987,0.007782608190930196,10.892105089490903,118.63795328051363,-74.25747546026508,40.453615165054146,-0.004192793800928936,0.6004304894619015,5.393575476915333e-05,0.06185916709749367,114.71109062531923
64,10,1,0.0026556707759432707,0.004989610797114761,0.005713084628097663,3.2639335967805805e-05,-1.9149357224230457e-05,3.4728848183062566e-05,0.02458230630391827,-1.810172050514567e-05,0.0009314925597529635,3.537867834047753e-06,0.00034132369992941807,0.024547577455735207,3.0,0.11733333333333333,0.012641789544004432,0.014463297605098048,0.15466666666666665,0.21333333333333335,0.0031221147353998977,0.8783045297227267,0.8713216871995103,0.05330194639010473,0.0028410974889735985,-0.0007651406410716967,0.7799850165564941,0.9624078740957737,-0.000762409956388409,0.0002941755338410875,-1.8882304082005104e-06,1.712507401970771e-05,0.18242285753927956,1.6580082812504657,1.6533328873299609,0.042101454601021,0.0017725324795218322,-0.0006014274547687603,1.580724083092219,1.7241246267273875,-0.0005962785507324718,0.001016132778504427,4.740455801814184e-06,0.00045659762128965524,0.14340054363516863,1.0,0.128,0.009797345823443493,0.011876941530509999,0.128,0.192,0.0022803727738579197,87.27272727272727,687.5,173.126995961835,158.74740264716843,327.5043733804685,1.0,1.0,93.75,181.65812527703423,128.16098749337795,73140.94136635719,1.417421391875749,0.2239390885679095,0.0,70461.49583331055,0.0,0.6082471267956271,-0.05922595138706443,10.827341945058894,117.23133359523172,-74.25747546026508,40.453615165054146,-0.0011447169519436388,0.5869786548360232,6.824451380223056e-05,0.056758330862028805,114.71109062531923
65,10,1,0.004243414765292365,0.00835195159160061,0.010972284703672982,0.00012039103161845607,7.037942559184418e-05,3.4728848183062566e-05,0.05684940763613809,0.00015133306208735514,0.0017539122023887237,-4.393208436414282e-06,0.0006938985471472901,0.05681467878795503,5.0,0.1248,0.02004287820683374,0.021112559650109088,0.144,0.208,0.0029172738841840625,0.824251729773896,0.8303432939181098,0.045833179444786855,0.002100680338018032,-0.0006282155339106518,0.7636339720219412,0.9101909028093367,-0.0003678813869964964,0.0009582197983204153,1.6433626118587027e-05,3.701935614217219e-05,0.1465569307873955,1.6187777851469463,1.624510525349364,0.03375694779946491,0.001139531524735799,-0.00042744342737080206,1.5777774965364533,1.6901280304809034,-0.00018075436289982327,0.0018370047908590611,1.2630107745705462e-05,0.0006351182275191554,0.11235053394445016,1.0,0.128,0.009797345823443493,0.011876941530509999,0.128,0.192,0.0022803727738579197,71.44186046511628,839.84375,156.13602614020303,135.7128171913029,202.28190415852822,0.8,0.6,148.4375,100.63276367565386,178.07016699885466,56296.37598793651,0.5651298326479423,0.19849146486701072,0.0,93590.74693644459,0.0,0.9862869963387744,-0.3197760017753293,17.37248082722446,301.8030900922815,-87.35004053868911,75.01613478985132,0.007786517488904448,0.9269324422832459,0.00020056600824625847,0.08140274626170935,162.36617532854044
66,11,1,0.12781109702522295,0.20145978615721902,0.20973407453601972,0.04398838202148068,0.0014531832860684075,0.007461065046264033,1.0026114368728827,-0.0005253839379724134,0.025852233971571627,-8.031564628999001e-05,0.008916859017459618,0.9951503718266187,6.0,1.0853333333333335,0.19711912254120698,0.23455833390858336,0.1024,0.1568,0.04290697423989873,0.6429570574592057,0.5666332790545204,0.14001454862056548,0.019604073825420697,0.0019441944761759964,0.32991202726825075,0.7307944675368284,0.001647578697371889,0.0018370028259342387,-8.68090266773353e-06,0.0001092864404472023,0.40088244026857767,3.783510553365555,3.841360864120936,0.24914180743984402,0.062071640214392314,0.002902073521447015,3.5383223472900145,4.6580256822159,0.0009850583956320445,0.022478703148084613,-8.414468037886563e-05,0.0077323047630322925,1.1197033349258856,7.0,1.3542857142857143,0.15400247081713175,0.18461942519621447,0.12114285714285714,0.17599999999999996,0.03455662569221894,-1.0,-1.0,-1.0,-1.0,-1.0,-1.0,-1.0,-1.0,-1.0,-1.0,-1.0,-1.0,-1.0,-1.0,-1.0,-1.0,-1.0,-1.0,-1.0,-1.0,-1.0,-1.0,-1.0,-1.0,-1.0,-1.0,-1.0
67,11,1,0.22592433357784442,0.2928134506826929,0.2439611284855432,0.059517032211939706,0.001908764329658352,0.007461065046264033,1.0026114368728827,0.0007073127618396446,0.03393822332150533,-7.862694426308132e-05,0.010590349053767172,0.9951503718266187,7.0,1.3634285714285714,0.23686554071698337,0.35064478368834556,0.112,0.1737142857142857,0.06618466335906668,0.6852534394178297,0.6600511002781105,0.10821533610955322,0.011710558969303573,0.001409725855632282,0.4088224184759447,0.8610412263106647,0.0018972366637442508,0.0021024960870181966,2.4507085800931465e-05,0.00011827148017940875,0.45221880783472,3.9226805459787544,3.999294658813577,0.2586951650357011,0.06692318841284862,0.0028338119678197413,3.6010475028951197,4.6580256822159,0.0022302220849323845,0.029074582081392037,-4.6241100848976034e-05,0.008979210242116014,1.0569781793207804,8.0,1.558,0.18570509181678707,0.27487973097434726,0.13,0.192,0.0570909928265001,-1.0,-1.0,-1.0,-1.0,-1.0,-1.0,-1.0,-1.0,-1.0,-1.0,-1.0,-1.0,-1.0,-1.0,-1.0,-1.0,-1.0,-1.0,-1.0,-1.0,-1.0,-1.0,-1.0,-1.0,-1.0,-1.0,-1.0
68,11,1,0.2654760212637827,0.3239307965791145,0.24494411023082113,0.059997617136768655,0.0013542310730751091,0.007461065046264033,1.0026114368728827,0.002146851217674318,0.03722904121396443,0.0003930909426381875,0.011938489176934231,0.9951503718266187,7.0,0.9531428571428572,0.276863327839843,0.3826944910505134,0.11657142857142856,0.17599999999999996,0.07451145841420125,0.7275658841279626,0.7918960974874172,0.1470580518175226,0.02162607060436516,0.001875696511264313,0.6446292965322271,1.1430430013626105,0.0020881657951267933,0.002183750936236017,-3.026147649856185e-06,9.539484579864083e-05,0.4984137048303834,4.144261427506306,4.138652173854992,0.26438029530024393,0.06989694054304417,0.002761304665207272,3.7571899928616466,4.719486836427099,0.0036304351729766924,0.032014775370162514,0.0003354470070199687,0.010150899244984532,0.9622968435654524,9.0,1.0764444444444445,0.19589710391920967,0.27173369699952543,0.11911111111111111,0.17600000000000002,0.05760981434174152,55.85454545454545,1074.21875,164.75856803877454,0.0,375.0,1.0,1.0,132.8125,0.0,0.0,0.0,3.496788426937506,0.23282887077997672,0.0,17915.785045751905,0.0,0.006209312121542904,-0.047861046335200184,1.9783769823683235,3.913975484364794,-5.8318231938746425,5.990334362890622,0.0017593815558982011,0.09152291651362816,-2.1407043054515245e-05,0.006971672151840282,11.822157556765266
69,11,1,0.3169800347091477,0.3702700171433256,0.22240096853265004,0.04946219080426079,-0.0011433860260587792,0.06133680080370435,1.0026114368728827,-0.00013998964459134924,0.038856550790620066,9.827983422823584e-06,0.012766661988222608,0.9412746360691784,8.0,0.49100000000000005,0.2889683300165725,0.37640309703323316,0.118,0.176,0.07171246348285525,0.8640901918886223,0.9348142135311522,0.21864019931904907,0.04780353675827351,0.003023086805457211,0.6861893510649947,1.3950343722475407,0.0029735659893287162,0.0023548941189933366,2.4338988649943416e-05,9.313475032539216e-05,0.708845021182546,4.299278982662111,4.300392085239063,0.21260718655965546,0.04520181577681215,0.0016084870114220198,3.831621120349584,4.769590861920731,0.0024635244685825377,0.033472350085848805,2.618710996408341e-05,0.010835924160181592,0.9379697415711474,10.0,0.6960000000000001,0.21086124942352064,0.27740770804628484,0.10400000000000001,0.15400000000000003,0.050400262509689535,-1.0,-1.0,-1.0,-1.0,-1.0,-1.0,-1.0,-1.0,-1.0,-1.0,-1.0,-1.0,-1.0,-1.0,-1.0,-1.0,-1.0,-1.0,-1.0,-1.0,-1.0,-1.0,-1.0,-1.0,-1.0,-1.0,-1.0
70,11,1,0.23576773676797064,0.2877125292794465,0.206781558107557,0.042758612773388965,-0.0016450481277171887,0.02940027331898501,0.9512540375635894,-0.0004871641448030005,0.032787446766651046,-7.038566431368463e-05,0.010405179631372734,0.9218537642446044,8.0,10800.017,0.2404560649441984,0.34595936683458506,0.136,0.204,0.07469633831187164,1.144220604376102,1.1436089846044604,0.2998463988767703,0.08990786291936723,0.004299131536107895,0.7213020809684431,1.6286978387913957,0.00377017308615215,0.002244077852750978,6.974692759519179e-06,0.00011467512845958362,0.9073957578229527,4.439354176029678,4.408338644094821,0.21603525352138528,0.04667123076404921,0.002267512210171422,3.9429203415119503,4.84964669543215,0.0028159774895971934,0.028231682262763378,-5.0347330696765e-05,0.008824785425798565,0.9067263539201997,9.0,1.08,0.1682729384352189,0.24716672933189038,0.10666666666666665,0.16,0.048745117526886816,53.5191637630662,1121.09375,203.53774172051604,0.0,421.875,1.0,1.0,171.875,0.0,0.0,0.0,6.533828915056214,0.22311468094600623,0.0,94043.32502762912,0.0,0.06055596482733289,0.007266801059548989,2.1625959331531615,4.676821170090593,-8.057817449454905,9.621880428570675,-0.0008550238439351984,0.10397015059165876,-5.435623789631985e-06,0.007598261876442353,17.67969787802558
71,11,1,0.14454569163598868,0.1945687706348141,0.16323205333760005,0.02664470323680911,-0.0012660244960355155,0.01632310942885164,0.7018500266867959,-0.000417580694611873,0.024821452612292325,-9.117414752045323e-05,0.008878807358819667,0.6855269172579442,8.0,0.49300000000000005,0.19934577383512658,0.22657534688558043,0.128,0.18742857142857142,0.04282828036824388,1.3988998220086188,1.375516880193058,0.26749320763502965,0.07155261613087709,0.003804717298143347,0.8671391574665799,1.7394252466401992,0.0036509330600115663,0.002051462723892689,-1.836727422514286e-05,9.685366233178833e-05,0.8722860891736193,4.566213334461361,4.526999946127881,0.19290938973423796,0.03721403264763611,0.0021689876928448633,4.133884365000832,4.910194149584839,0.0027173298207944377,0.021719408405406402,-9.550816989696472e-05,0.007534638387675212,0.776309784584007,9.0,1.0871111111111111,0.16407834980057837,0.20668644281043175,0.10799999999999998,0.156,0.03439217559612863,58.32911392405064,1028.6458333333333,140.1661108416447,101.5625,291.6899172280386,1.0,1.0,125.0,193.34951048069658,27.621358640099515,16777.9148674992,6.999999999999999,0.32420165342843243,0.0,61574.38425397279,0.0,-0.11807252608952933,-0.0003790904769896556,2.132143211862046,4.546034675889401,-8.057817449454905,9.621880428570675,-9.775855519060609e-05,0.10265782679332458,3.177868574354309e-05,0.007357326230276837,17.67969787802558
72,11,1,0.08176869498203981,0.12995596690389966,0.13101107958606278,0.01716390297430568,-0.0010525202574167168,0.012724053656718061,0.6996198130204266,-0.002401356719554343,0.016268859170849484,-0.00032210407198959926,0.0061006113886415275,0.6868957593637086,6.0,0.6066666666666667,0.11705046095072001,0.14159950451039172,0.136,0.19733333333333328,0.028293644169267607,1.6293502399707822,1.5695639574594058,0.21852272036206416,0.047752179314436885,0.003042193474363781,1.1453982073895936,1.8720036303702685,0.003037045440145834,0.0019178104723438936,-9.360860046223977e-08,9.18657410667804e-05,0.7266054229806749,4.659388277707869,4.63753094238722,0.15042903857914444,0.022628895647845728,0.0017011864879236272,4.307046214901577,4.910194149584839,0.0005571987819924295,0.014707057691690013,-0.0002581553231558407,0.005185015752987671,0.6031479346832622,7.0,0.9531428571428572,0.09930495893388118,0.1368176421198482,0.10666666666666667,0.16,0.03510593757579167,-1.0,-1.0,-1.0,-1.0,-1.0,-1.0,-1.0,-1.0,-1.0,-1.0,-1.0,-1.0,-1.0,-1.0,-1.0,-1.0,-1.0,-1.0,-1.0,-1.0,-1.0,-1.0,-1.0,-1.0,-1.0,-1.0,-1.0
73,11,1,0.0674418366885287,0.08577395564088171,0.06979778895691001,0.004871731343273349,-0.00019899219677670511,0.01045153179310909,0.3521433717809232,0.00013061073206343613,0.012727519771775327,-8.993288780949984e-06,0.0045156997499409485,0.3416918399878141,9.0,0.4346666666666667,0.09356327117085589,0.10630030518554645,0.12533333333333332,0.18400000000000002,0.0243132476679358,1.740291092309093,1.7436745998991556,0.14707205771061818,0.021630190159235403,0.0021081619199231137,1.402765271769697,1.9900880931570326,0.0024673397470547165,0.0014669980410397597,-2.4061471140336226e-05,6.487327306284286e-05,0.5873228213873356,4.75924780901283,4.748655317667376,0.13054942231299174,0.017043151666255866,0.001633911013108244,4.430977370032456,4.984574305279361,0.0022150910062132454,0.011340031596297567,-3.845121829653223e-05,0.003798091382898731,0.5535969352469055,7.0,0.9531428571428572,0.09534104999775497,0.13072169083111415,0.128,0.19199999999999998,0.03710029386411793,-1.0,-1.0,-1.0,-1.0,-1.0,-1.0,-1.0,-1.0,-1.0,-1.0,-1.0,-1.0,-1.0,-1.0,-1.0,-1.0,-1.0,-1.0,-1.0,-1.0,-1.0,-1.0,-1.0,-1.0,-1.0,-1.0,-1.0
74,11,1,0.05163800180169997,0.06437018270634319,0.052354199853106326,0.0027409622422589985,-0.00016538133716333822,0.007887087282941452,0.2905637481189281,-8.94822499359665e-05,0.008904846154062371,9.23148512239393e-06,0.0031659768516235256,0.28267666083598664,9.0,0.42400000000000004,0.06707145218625704,0.07133898557458189,0.11466666666666668,0.16266666666666668,0.015750928927891882,1.873133119745213,1.863972065940089,0.136728735398847,0.018694747083767914,0.0019693432909213488,1.6300026411501687,2.0690695405985204,0.0018342468853458143,0.00041177218384937043,-1.6576306147680909e-06,1.8729989263827827e-05,0.43906689944835176,4.832991093307362,4.833177219043767,0.11619282920477067,0.013500773558609007,0.0015414534302241086,4.600184088731815,4.984574305279361,0.001471850990866038,0.007848490531133408,8.581260159327512e-06,0.0027042440561844336,0.3843902165475459,7.0,0.5405714285714287,0.07113950905779223,0.08754704012194862,0.13199999999999998,0.19199999999999998,0.021017233626834542,-1.0,-1.0,-1.0,-1.0,-1.0,-1.0,-1.0,-1.0,-1.0,-1.0,-1.0,-1.0,-1.0,-1.0,-1.0,-1.0,-1.0,-1.0,-1.0,-1.0,-1.0,-1.0,-1.0,-1.0,-1.0,-1.0,-1.0
75,11,1,0.05219036843959463,0.08327132436677086,0.11963525366122237,0.01431259391858502,0.0005398490613238506,0.006372047781322084,0.679001711210314,0.0004868703314929817,0.018318389051942194,-7.347493800643873e-05,0.006042471400146413,0.672629663428992,9.0,0.42933333333333334,0.09897433872713059,0.11409074549990628,0.11200000000000002,0.15999999999999998,0.03186778584764488,1.991060525668006,1.9703106948914262,0.11953569694986471,0.014288782845289897,0.0017101132963240715,1.741156937977987,2.1655225330420733,0.0017772224296308038,0.00048313695491533626,3.6418319541186203e-06,2.074745105113914e-05,0.42436559506408633,4.945700868415525,4.940181310605065,0.16366102871991384,0.02678493232166046,0.001922476652373104,4.74495379629537,5.601084827516577,0.001976846308240676,0.015740027814491298,-5.927100622192631e-05,0.005113671922143273,0.8561310312212074,9.0,0.45422222222222225,0.08605199239269368,0.1087326978255244,0.1504,0.2048,0.032244516924192286,-1.0,-1.0,-1.0,-1.0,-1.0,-1.0,-1.0,-1.0,-1.0,-1.0,-1.0,-1.0,-1.0,-1.0,-1.0,-1.0,-1.0,-1.0,-1.0,-1.0,-1.0,-1.0,-1.0,-1.0,-1.0,-1.0,-1.0
76,11,1,0.06607764036246822,0.11180647238792597,0.12863506565731606,0.016546980116662013,0.0007249821917225178,0.006372047781322084,0.679001711210314,0.00025190565818358974,0.018985514612034435,-3.695192230209008e-06,0.006414484310726824,0.672629663428992,10.0,0.396,0.09968131801409594,0.11081374788775747,0.11733333333333333,0.16266666666666665,0.028574369641728267,2.069546320205431,2.0872161786197303,0.12973185822592864,0.01683035503875245,0.0018317736626022741,1.8742626091201575,2.393481244183583,0.0021779699924072125,0.0010721309993539385,1.0518924245303309e-05,2.3980896580648758e-05,0.5192186350634256,4.976786285010892,5.0645502464080705,0.17992001539324834,0.03237121193910672,0.002184669208599218,4.795162205241117,5.601084827516577,0.0021143826354664513,0.01628363315457193,3.09940667697998e-05,0.005406022777378747,0.8059226222754603,11.0,0.3861818181818182,0.08245021365774234,0.09912907481881642,0.13257142857142856,0.18285714285714286,0.025664428675965013,68.57142857142857,875.0,160.8692209529219,15.625,34.938562148434215,0.5,0.0,85.9375,22.09708691207961,11.048543456039738,766.990393942816,2.0000000000000124,0.1905850962454736,0.0,72819.22037764224,0.0,-0.09199314816902884,0.018752195698140673,1.6512742463162924,2.7267066365474393,-4.92422890946684,4.856672322451656,0.00019940869712717848,0.06907012303904335,5.359313384338206e-05,0.005393930263426432,9.780901231918495
77,16,1,0.017027395083281143,0.02098792052776077,0.017043573752531807,0.0002904834062579912,-5.6969187745051435e-06,0.0019359237451123713,0.07334514168873948,1.6653876481786595e-05,0.0030489197153475514,-3.1227157158336356e-06,0.000970277585574558,0.07140921794362712,7.0,0.5474285714285715,0.02164791306597637,0.033360561768986816,0.1462857142857143,0.2217142857142857,0.007780249691375673,1.766057923940827,1.7699849127268001,0.07650845770957469,0.00585354410109778,-0.001100378663651793,1.6397305640766344,1.9091232919148418,-0.0011278657853944676,0.0003936483306475386,3.6172397178538726e-06,2.4298047762994857e-05,0.26939272783820734,1.7382125957213006,1.739123394120738,0.04502431969840472,0.0020271893643041554,-0.0006316594211259028,1.657608780514436,1.830570468231337,-0.0006433826646255729,0.0018571208591692363,-6.749975451007343e-07,0.0005566876815079194,0.17296168771690112,2.0,0.16799999999999998,0.014859094426332486,0.022135680886727904,0.12,0.192,0.0045694206951568716,107.09163346613546,560.2678571428571,166.43066305143864,166.74802701648045,258.7970468501009,0.8333333333333334,0.75,62.5,182.9878818041041,157.83699273630899,90736.28631964783,1.1593472394004207,0.25518883974140866,0.0,158161.5068726323,0.0,-0.01392906657785945,-0.007889828939867042,1.2857235324132295,1.6530850018011525,-5.809673654865068,5.942068610132259,-0.0001788982244426119,0.04563043927030919,-4.421895010964751e-06,0.004767626694906282,11.751742264997327
78,16,1,0.017363026160377052,0.02074375104311792,0.014629796481859851,0.00021403094510063887,6.366951542498221e-05,0.0027149246832972465,0.07314162798070047,0.0002488852805751506,0.0028992320914828077,4.319050697705364e-06,0.0009909010569526652,0.07042670329740322,8.0,0.49300000000000005,0.019789004631277585,0.026644290796837385,0.134,0.20600000000000002,0.005680366700248101,1.7084829927234881,1.711647421564078,0.06750054097518346,0.004556323031942421,-0.0009532056124131689,1.6303075785322771,1.8362714391924724,-0.000844321384061715,0.0005940042186147262,8.614272116458377e-09,3.158619989558838e-05,0.20596386066019523,1.704731784739947,1.7056502426562348,0.03724323145759709,0.0013870582894041491,-0.0005084695568263603,1.653796245696323,1.771332207634682,-0.0003294047339445406,0.0018380836340805295,9.657294462941021e-07,0.000574480483592539,0.11753596193835891,3.0,0.15466666666666665,0.010461690068418092,0.013741915951033986,0.10666666666666665,0.17600000000000002,0.0024242455065265566,116.86956521739131,513.3928571428571,120.48058704098969,71.27809204973153,147.9845061568947,0.9,0.8,46.875,102.9413611145928,149.90638354694903,48479.69802979671,0.6867043195819122,0.18564930845632602,0.0,54694.4865851295,0.0,-0.005917723821475431,0.018897596542398067,0.8504844102905614,0.723323732147284,-2.360899229870488,2.7468944335367302,-4.7416277569863e-05,0.033921339987761236,1.322129398270522e-05,0.0044562472859283695,5.107793663407218
79,16,1,0.02038616094598867,0.02384467809859312,0.01580609557771051,0.0002498326574117198,3.556145050800768e-05,0.0027149246832972465,0.07314162798070047,-7.434124939543837e-05,0.0030030011717491964,3.5664350713287218e-06,0.0009922259780130013,0.07042670329740322,7.0,0.9577142857142859,0.0246341310069136,0.03481537598368741,0.14171428571428574,0.2171428571428571,0.00781018821590135,1.639313531507599,1.6568576811398057,0.05470407018594516,0.0029925352949088145,-0.00077258193001022,1.5553827807570186,1.7651331991366368,-0.0008787699592742203,0.0006241307792435587,5.753384160712277e-06,3.805596759433391e-05,0.20975041837961816,1.6715728348786518,1.6761501060783952,0.031867557465882164,0.0010155412188413019,-0.0004210633425256747,1.6040616906572291,1.738237442456079,-0.0005529941950435431,0.0018956157725180326,6.090441418942633e-06,0.0005801600627313841,0.13417575179884977,4.0,0.866,0.01244725543078018,0.01686727059311588,0.10799999999999998,0.18,0.0030778641868242727,94.62639109697932,634.0725806451613,169.2092668326707,111.39895982631886,204.09091919684008,0.9444444444444444,0.8888888888888888,109.375,140.30984274959158,194.1623154739171,85586.0440863341,0.7226419936696737,0.10180707559175363,91876.33787428505,237016.24850688817,0.3876372968227743,-0.028877828952706214,-0.020529521783155147,0.7070244360483361,0.4998835531694677,-2.360899229870488,2.1696902672236895,-0.00046446517507203684,0.0321834500972717,-1.4367881165862268e-05,0.004218680751937256,4.530589497094177
80,16,1,0.019981489849744564,0.02130281519553606,0.014449116189220856,0.0002087769586496042,-3.450359478297791e-05,0.001037733704218602,0.06333219978494989,4.490784372568853e-05,0.0023990385543787695,-2.3033256017126544e-05,0.0007726455239820169,0.06229446608073129,7.0,12343.674285714285,0.018911009177451095,0.02874419464377512,0.13333333333333333,0.20533333333333334,0.00624672647316802,1.6304084689564373,1.6061755281784813,0.0582856312006119,0.003397214804453743,-0.0008217179526467186,1.4943436133193073,1.7081167305009592,-0.0008927489400138488,0.000612507943474444,2.4550879904864746e-06,4.281524543838945e-05,0.21377311718165193,1.6568155715889072,1.6457843183924614,0.036145242158575126,0.0013064785307020368,-0.0004887823282398903,1.584279667272219,1.7106382526412252,-0.00047749204283467395,0.0015215595866645915,-1.1491857606689878e-05,0.00048095346634315593,0.12635858536900613,6.0,14399.988000000003,0.00997441904087267,0.03340635265715356,0.1152,0.1856,0.0028802637250652974,114.92957746478875,522.0588235294117,138.93581303153468,109.41963375007248,159.19107033687536,0.6,0.6,46.875,81.78907705188999,143.37587183693074,36840.138299323065,0.570452168862228,0.5639521768554027,0.0,84258.96202700394,0.0,0.017128794253242846,-0.003556136747832254,0.7209530858311904,0.5197733519695158,-3.0889723550848576,2.1696902672236895,0.0003506337641165568,0.03261938540564338,-8.821948422402252e-06,0.004017899229431695,5.258662622308547
81,16,1,0.017369011096134715,0.021438507516102375,0.017882695955124057,0.00031979081462341026,-2.5183674387862132e-05,0.0008486547879361134,0.07710804027926736,5.361992481328496e-05,0.002924419959434403,-7.888337982203507e-06,0.0009176944918209475,0.07625938549133125,6.0,1.572,0.02544670944179518,0.03870028361518354,0.14933333333333335,0.23199999999999998,0.009012061654486625,1.555153071946606,1.5687339902407065,0.04994186066528325,0.0024941894467105665,-0.0006356393199300588,1.494258583311334,1.6388964989385637,-0.00037079401300947336,0.0009894809296853997,3.1222030715841636e-06,5.21344579565449e-05,0.14463791562722972,1.6203154639760151,1.6244299381414355,0.03320010913246457,0.0011022472464075573,-0.00037738596684077735,1.5748093217471733,1.6859659506184768,-0.00017852820295358312,0.0018990824451167953,-3.578646550986738e-06,0.000585518025439568,0.11115662887130351,5.0,0.7280000000000001,0.01577908079196071,0.02276685668786955,0.1344,0.20800000000000002,0.0051282316791252365,105.25888324873097,570.0231481481482,176.6421367831339,175.0382895884964,246.0981788150238,0.7142857142857143,0.7142857142857143,62.5,165.27845978280416,157.372007866751,81713.46289296768,1.0502405225886655,0.5202913631633715,27540.97327625676,289229.46608637134,0.09522187918444076,0.003280962625217711,0.014339108819433882,0.8944114399490114,0.7999718239116641,-3.0889723550848576,3.498684642932156,0.0002946164353171819,0.04364496041227558,-3.935214406646491e-05,0.004996731618749535,6.587656998017014
82,16,1,0.012536503594834067,0.01830648942377514,0.017515372882163198,0.00030678828720121794,-4.574810981729159e-05,0.0005583877601593547,0.07710804027926736,-0.00016707879056162314,0.002574938319909963,1.603361169758424e-05,0.0007558211833043878,0.076549652519108,4.0,1.568,0.02325100884672058,0.03765977460639383,0.144,0.23199999999999998,0.00877001841552502,1.5394724293490916,1.5393507504000141,0.03746531004692835,0.0014036494569124704,-0.000391529650040441,1.4680203474839042,1.6335543651511866,-0.0006947544792804965,0.0010708101258398814,-2.7456728963495825e-06,5.121953099918818e-05,0.16553401766728237,1.600865146751714,1.6058597155217313,0.027215741693057585,0.000740696595903233,-0.0002505410454806727,1.5666763193591906,1.6850111024882248,-0.0004932144161661267,0.0017075152461016767,7.2415797579464725e-06,0.0005089112245017819,0.11833478312903423,2.0,0.176,0.019020914086718133,0.029260285275163667,0.16799999999999998,0.24,0.007637280382839994,103.31838565022422,580.7291666666666,164.47534036081382,61.51568651571727,87.69509500251425,0.5,0.5,46.875,48.47528767965177,38.669902096139346,5889.024218280095,1.2535663410560163,0.43084877208099953,0.0,85363.4875082713,0.0,0.00320615676107985,-0.005357663944264731,1.3122023730485157,1.7218750678341561,-8.374609551416324,6.2927315041393985,1.5673472744581404e-05,0.07078532739398181,-6.845230106220962e-06,0.006883941369413648,14.667341055555722
83,16,1,0.009470737125253212,0.015876127969308106,0.01628540846762752,0.0002652145289574742,3.181967812415537e-05,0.0005583877601593547,0.07710804027926736,0.0001760928816398667,0.002527055760821439,3.1867695837848535e-06,0.0007565854092903663,0.076549652519108,4.0,1.568,0.022456238561806174,0.03570826878620843,0.15599999999999997,0.24,0.008362362460517381,1.5096019663452607,1.5027035857848452,0.04016051302905194,0.0016128668067566508,-0.0004369025404506019,1.4323040546398915,1.5549233631361934,-0.0005085797570196925,0.0010033578157114763,2.9795897309596126e-06,4.833977110213091e-05,0.12261930849630187,1.5852439310275535,1.583529639600738,0.02516146905169738,0.0006330995248395251,-0.00023126685563062496,1.5357187315021328,1.6438988313567053,-0.00017987969571689466,0.0016481348620290656,1.3666502909466528e-06,0.0004938840731104486,0.10818009985457255,2.0,0.176,0.019020914086718133,0.029260285275163667,0.16799999999999998,0.24,0.007637280382839994,108.23529411764706,554.3478260869565,153.77589900514099,174.06191471519838,280.91222000337086,1.0,0.8888888888888888,78.125,194.95530609208046,132.14987662489628,80937.85573647467,1.4752590851481129,0.6280420788192809,0.0,54559.05039757547,0.0,0.057566910448893935,0.01618852442096332,1.3407657583263375,1.7976528187003988,-8.374609551416324,6.2927315041393985,0.0009958474213660029,0.07138070666799165,1.612924899444876e-05,0.006935286607177483,14.667341055555722
84,16,1,0.017672686581722774,0.0315129856489569,0.03591666224745612,0.0012900066269978395,0.00023695076087940192,0.0005583877601593547,0.15494057470671985,4.76238547285755e-06,0.004487132699732862,2.0098159394857678e-05,0.0015123238617618824,0.1543821869465605,5.0,1.2896,0.037852908354969086,0.05063467922070568,0.1344,0.21119999999999997,0.01028519710971926,1.4971639404483488,1.4929730020634342,0.04200209955329104,0.001764176366884571,-0.00026455660219262193,1.4323040546398915,1.5562685829570813,0.0002604041182211548,0.0014668619166919967,3.688653852257593e-06,6.147235081562816e-05,0.12396452831718974,1.5848865978780344,1.5868590204503974,0.028136836263938925,0.0007916815549437086,-1.579240457664345e-05,1.5357187315021328,1.6438988313567053,0.00014524595330949787,0.002779244702863927,1.4255379375796111e-05,0.0009207795792409524,0.10818009985457255,3.0,2.058666666666667,0.030834554201793967,0.053904075040435075,0.2026666666666667,0.2933333333333333,0.014685636177087395,114.74103585657372,522.9166666666666,71.00163828313322,39.0625,108.81553341550094,1.0,1.0,62.5,71.81553246425872,27.621358640099515,6231.796950785417,2.599999999999999,0.5105296745373324,0.0,3786.927264594151,0.0,0.13999728131278105,0.02909862421960761,5.214564729237555,27.191685315408332,-38.73527317249758,24.192778807442117,0.00010942619280825411,0.2069021656101222,-1.3406951404401727e-05,0.020274411210454958,62.928051979939696
85,16,1,0.022522544123971228,0.033888209973540036,0.03511148920541195,0.0012328166742217599,0.00012818251228489838,0.0005583877601593547,0.15494057470671985,-6.564725710360154e-05,0.004293632394822619,8.13597044724914e-06,0.0014692223204524916,0.1543821869465605,5.0,1.8576000000000001,0.03506026307387563,0.04622071537898253,0.1312,0.21119999999999997,0.009367092630640844,1.4972892703142722,1.4930004730688984,0.04242803122530952,0.0018001378336558393,9.115996090823685e-05,1.4323040546398915,1.558077427580965,-0.0002177275039833638,0.0015124266632476238,2.25572221447858e-06,7.355850767493986e-05,0.1257733729410735,1.5895469303061778,1.5883180552297285,0.028851503247284183,0.0008324092396280497,0.00012599347542812634,1.5357187315021328,1.6409561897131433,-0.0001563606779554134,0.0026722465246416032,-2.634114697912249e-07,0.0008917512251539512,0.10523745821101049,3.0,2.048,0.026321113961731275,0.04469639546421752,0.17066666666666666,0.256,0.011402742891685642,105.72271386430678,567.5223214285714,148.6460923605974,136.55769283428242,237.8903042896032,1.0,0.9333333333333333,93.75,167.20291336011795,137.3934246061288,72170.49129728942,1.216964449641205,0.6299609424215697,26289.169505898954,72868.77611697893,0.3607741327190123,0.18756290688682936,-0.003267540388034225,5.279721002947902,27.875453868969203,-38.73527317249758,24.192778807442117,-0.0003526955053889972,0.21083570898855425,-1.7064339556626824e-07,0.020403695912564655,62.928051979939696
86,16,1,0.03066932537125099,0.049125108551866324,0.042174868308637224,0.0017787195168508926,0.0001627000017727448,0.0014494534763864184,0.15494057470671985,1.692707433639105e-06,0.005280821596164218,-1.697870891911528e-05,0.0017357841763024698,0.15349112123033343,4.0,2.294,0.05851588912493884,0.08047286920637663,0.196,0.272,0.025321436718631636,1.502126507061214,1.496881886872908,0.04469981159272622,0.0019980731564252213,0.0005061356064078203,1.4323040546398915,1.5773369180859487,0.0004624102186880294,0.0014303939016822905,1.3507571019123292e-05,7.073709255480958e-05,0.14503286344605715,1.60369888638084,1.5992317969792198,0.03705952561404219,0.001373408438737849,0.0003818738637465055,1.5357187315021328,1.6616954903072334,0.0002190905369811915,0.0032423472284071426,-1.4406379572486083e-05,0.0010560667608531138,0.12597675880510062,3.0,2.048,0.026321113961731275,0.04469639546421752,0.17066666666666666,0.256,0.011402742891685642,103.14049586776859,581.7307692307693,178.64232465746653,149.16670303770505,237.56509524584345,1.0,0.8333333333333334,85.9375,167.33670652518066,117.9949037417624,62030.36548950174,1.4181689311888013,0.463208046585495,22209.979485348827,488566.1583126283,0.04545951271380712,0.3606869569768667,0.09968486505034704,5.7267932042486605,32.79616040422864,-38.73527317249758,24.192778807442117,0.0029104770692476778,0.22314512312927273,9.487493844396234e-05,0.021036848449133096,62.928051979939696
87,16,1,0.06736927062555699,0.08126911104613627,0.06978338560596549,0.004869720906630872,0.00032217792017062946,0.00434480058908864,0.3363671876101106,0.0002128102845936775,0.010823102548037849,-3.345516333596796e-05,0.004077153282111088,0.33202238702102194,6.0,14400.445333333331,0.10444903163285675,0.10824696831202259,0.20800000000000002,0.2752,0.03893276066626834,1.536256051252437,1.5414869427749744,0.0568242286142748,0.0032289929576073675,0.0006941008516671137,1.4332759699269844,1.641512869415388,0.0008686470069297037,0.0013317787452942292,-1.0112073705555168e-06,7.255083607039141e-05,0.20823689948840363,1.6261120094476733,1.6430321021548204,0.05815335891169649,0.0033818131527125895,0.0005800605322729492,1.5623950923329344,1.8180019474570386,0.0006185285625837079,0.006381163878381945,-2.0157988380991913e-05,0.0023384668186279918,0.2556068551241042,4.0,0.8500000000000001,0.06324965439329788,0.07614679451203193,0.256,0.33066666666666666,0.032767860118651876,76.41791044776119,785.15625,226.1243068500985,19.487798889447614,245.56615071096422,1.0,1.0,156.25,158.91819064992038,195.7806888459635,97744.72671461734,0.8117153514305702,0.47778308647873863,0.0,99197.29920664453,0.0,0.539502951698458,-0.24194429820080743,9.872091084399758,97.45818237868517,-45.01061860046963,31.30703949644305,-0.00035253101839179194,0.4080231507099595,-1.0774549258145763e-06,0.03398073747355738,76.31765809691268
