,subjectID,Label,median_p,mean_p,std_p,var_p,slope_p,min_p,max_p,fdmean_p,fdstd_p,sdmean_p,sdstd_p,drange_p,peaks_p,rise_time_p,max_deriv_p,amp_p,decay_time_p,SCR_width_p,auc_p,median_t,mean_t,std_t,var_t,slope_t,min_t,max_t,fdmean_t,fdstd_t,sdmean_t,sdstd_t,drange_t,median_f,mean_f,std_f,var_f,slope_f,min_f,max_f,fdmean_f,fdstd_f,sdmean_f,sdstd_f,drange_f,peaks_f,rise_time_f,max_deriv_f,amp_f,decay_time_f,SCR_width_f,auc_f,bpm,ibi,sdnn,sdsd,rmssd,pnn20,pnn50,hr_mad,sd1,sd2,s,sd1/sd2,breathingrate,lf,hf,lf/hf,median_bvp,mean_bvp,std_bvp,var_bvp,min_bvp,max_bvp,fdmean_bvp,fdstd_bvp,sdmean_bvp,sdstd_bvp,drange_bvp
0,5,1,0.11664627869775601,0.1367340925726649,0.08772805346335599,0.007696211364469448,-0.00044994932451157825,0.013725631508302437,0.418655966356659,-0.0005283510030284559,0.014667672606807645,8.524260960402439e-05,0.005478744491991051,0.4049303348483566,9.0,0.44,0.11204088915534235,0.13007594492115027,0.11,0.16,0.021044457851317352,1.4055312635959485,1.373279687382193,0.16826291780755823,0.028312409509113092,0.0024112623890565478,1.1190868565894534,1.617966875096989,0.0020656237621937876,0.0011294701922973615,-3.6551452717169714e-06,5.662112593898167e-05,0.4988800185075357,3.0365478834168487,3.00863099970122,0.1526445324907237,0.02330035329931161,0.0018295176180125052,2.7397551844011683,3.318388123897427,0.0014455513303721949,0.014213146061068115,6.703816785788297e-05,0.005143903078865602,0.5786329394962588,9.0,0.44355555555555554,0.08992357364728774,0.1180533175917932,0.148,0.21,0.03166032812527809,65.50106609808103,916.015625,163.67840082455712,121.70126505779086,264.0886944601504,1.0,1.0,117.1875,185.82877890532578,90.36120610884102,52752.720919019564,2.0565106078984057,0.13651877133105803,0.0,10461.311544884486,0.0,3.603034921406042,-2.0420939619649356,45.748859800465574,2092.958173042655,-191.04926779084565,103.35093069682542,-0.027632166155892108,2.5422753111430714,0.0022234122798456385,0.24294458811373257,294.40019848767105
1,5,1,0.10271626645484459,0.12529235469591055,0.08723631743666733,0.00761017507991099,-0.00047045548297738963,0.013725631508302437,0.418655966356659,0.000747554316692849,0.014454018438015368,4.027559554040918e-05,0.005381399766571013,0.4049303348483566,8.0,0.47900000000000004,0.11589034896330178,0.13602048570298378,0.13942857142857143,0.1897142857142857,0.02557374294675266,1.5089306116879113,1.4915112915493969,0.12881284479233238,0.01659274898349351,0.0017866023515087052,1.199549011403064,1.642598225653006,0.0018528071158262882,0.0013131551116116918,-1.1305809017222539e-05,5.776790165695174e-05,0.44304921424994204,3.1043676483607765,3.108267664983172,0.11468862042664414,0.013153479655366855,0.001228884952498595,2.7546171126744223,3.343236316532076,0.002442018851185712,0.013881100911479169,7.2320976221026035e-06,0.005050041909874075,0.5886192038576539,9.0,0.42933333333333334,0.08424916905226373,0.10649176131241767,0.15085714285714286,0.20342857142857143,0.03077495882463412,-1.0,-1.0,-1.0,-1.0,-1.0,-1.0,-1.0,-1.0,-1.0,-1.0,-1.0,-1.0,-1.0,-1.0,-1.0,-1.0,-1.0,-1.0,-1.0,-1.0,-1.0,-1.0,-1.0,-1.0,-1.0,-1.0,-1.0
2,5,1,0.08737694700838144,0.09823405693063213,0.06182486459043554,0.0038223138816256903,-9.100454455281023e-05,0.013555846521857422,0.26534788559259453,0.00020918153778299244,0.011568500475995148,0.00012739031121973286,0.003994756164196157,0.2517920390707371,6.0,0.5960000000000001,0.08043417891564578,0.10998472658829932,0.14666666666666667,0.20266666666666663,0.02599406163172765,1.6107560643788563,1.581292635838673,0.08213550558499329,0.006746241277702464,0.0011160343675730912,1.4067814237605434,1.7703420251726962,0.0015347675423041441,0.0016574125543086756,1.949428873603461e-05,9.54540022497468e-05,0.36356060141215285,3.1766019488904176,3.166863095003694,0.0910877046072739,0.008296969930621987,0.0009555126253528896,2.9701641686614164,3.358119650904045,0.0016651234328178693,0.011440206574652853,0.00011401596909091742,0.0037818863459841484,0.38795548224262877,8.0,0.473,0.06386661542696626,0.092603942324954,0.15466666666666665,0.20799999999999996,0.030119601457961723,71.70124481327801,836.8055555555555,178.1693279259375,162.54673473257537,229.1074734158622,1.0,0.6666666666666666,125.0,146.1120847823493,103.77530648526702,47635.42396146211,1.4079658228048002,0.3985651654045437,0.0,147665.58336603845,0.0,2.2677987751812965,0.08041261177112892,43.17810425947639,1864.3486874422135,-191.04926779084565,156.93302903473057,-0.028306193438593592,2.564382103848529,-0.0009338365081149986,0.24319280476947044,347.9822968255762
3,5,1,0.09242305408566148,0.10624801961969718,0.06712911224219302,0.004506317710424949,8.076638212560077e-05,0.013555846521857422,0.27149790069576785,0.00021631427211137136,0.011568672059467952,2.8844115610853187e-05,0.004000204316710067,0.2579420541739104,7.0,0.5108571428571429,0.058359106023190985,0.07762263834605883,0.12114285714285712,0.16914285714285718,0.018348116168207796,1.6368293352357863,1.7090115805183452,0.1633724052198835,0.026690542787329814,0.0020457890381333946,1.5101256344270628,2.0921951343461367,0.0024318956627108358,0.002585517028103715,-7.5646249039604725e-06,0.0001176589311445871,0.5820694999190739,3.230013080843477,3.2935345055014724,0.16905478973786908,0.028579521933315123,0.0019864852152973816,3.015296792389619,3.6213753110307207,0.0025031651690246496,0.011488500647404835,2.1221879414214107e-05,0.003834607873227532,0.6060785186411017,8.0,1.187,0.05579774150371275,0.10893777903511981,0.14,0.196,0.03200906315438085,72.58979206049149,826.5625,158.33761644426127,103.90592366281251,158.57643070456592,1.0,0.6666666666666666,70.3125,104.55656197856632,112.79379076931103,37049.84195357192,0.9269709020810222,0.4842028810071419,0.0,78132.75917181026,0.0,1.963894513420836,0.07135851732948849,46.15601231462392,2130.377472787715,-191.04926779084565,156.93302903473057,-0.006931204016945162,2.6583045052480863,-4.93898025876473e-05,0.2490516616417158,347.9822968255762
4,5,1,0.09126410132324836,0.10097293443894508,0.05954438070315665,0.003545533273322454,-9.163272222895269e-05,0.013555846521857422,0.27149790069576785,0.00037664410365299134,0.010704166508579466,-2.536991593571405e-06,0.0036741575838311687,0.2579420541739104,7.0,0.11885714285714287,0.06659194941284334,0.0688361720732897,0.12000000000000001,0.16266666666666665,0.014968491089337422,1.7739488618766575,1.835293984405581,0.20553288214149593,0.042243765641390055,0.0028035024574711233,1.6065091094078037,2.156842924343535,0.002270853018075274,0.002865397602505922,2.6012917597671946e-05,0.0001404372338592254,0.5503338149357315,3.378699894723313,3.406581538639893,0.19286291253967022,0.03719610303328449,0.0025307470131465544,3.130003575341535,3.7329561266079,0.0024767698554798534,0.010623490302088116,1.706370521873668e-05,0.00350056774084432,0.6029525512663647,8.0,0.8320000000000001,0.060238980454006,0.08860468868827315,0.088,0.128,0.007931846738301477,75.44204322200393,795.3125,120.3125,83.00717422140222,181.54609435347265,1.0,1.0,93.75,127.89613706050703,67.7083333333334,27205.043437257464,1.8889275627397943,0.1258019876714052,0.0,7213.557341578137,0.0,0.45444578350636833,1.1304561792154024,42.998318055495744,1848.8553556015715,-190.20051622070153,156.93302903473057,-0.011272421876033105,2.41805416642503,-0.0006190571603150119,0.22548262601924118,347.13354525543207
5,5,1,0.09565145731031788,0.10946646465583866,0.05977638054018051,0.0035732156704844707,1.4040700404275323e-05,0.013555846521857422,0.27149790069576785,-0.0006608103279723635,0.010911089500565707,-1.2784873229734126e-05,0.004048842748063331,0.2579420541739104,10.0,0.1072,0.07035434315690446,0.06703029128734414,0.09244444444444444,0.13333333333333333,0.010858320273910874,2.0668012683095496,1.9902777409619443,0.21820936074821937,0.04761532511814654,0.0030167716637425858,1.6356225234252886,2.2674884379268905,0.002435272954673721,0.003090677949746182,-5.0854170564651e-06,0.00016198676951767558,0.6318659145016019,3.591100589593526,3.559176637108203,0.21247874535510264,0.045147217227678546,0.0028282423078411756,3.2038487312871275,3.9080214841564502,0.0016660918232166365,0.011245603711473205,-3.435748162063425e-05,0.003924788753276222,0.7041727528693227,10.0,0.9720000000000001,0.0659788473571549,0.09461311910359753,0.08266666666666667,0.128,0.007850809983089199,66.4089521871821,903.4926470588235,143.62959452659967,89.60755486502737,222.01189047861578,1.0,1.0,125.0,152.89610316877773,126.91435335067409,60961.69458054214,1.204718766098221,0.2605693440166764,49858.02647301577,115954.47757517126,0.42997931184411303,0.8780976324625345,-0.34822789509631474,39.05080176836485,1524.965118752127,-190.20051622070153,122.15434666571473,-0.006996301548976288,2.1825265176575366,0.0002825635972080968,0.21077052624068307,312.35486288641624
6,5,1,0.09415700380463057,0.10570913811380601,0.06309194230648286,0.003980593184004563,-0.00028788093756614615,0.009703713554945195,0.27149790069576785,-0.00019344364366384064,0.010971387810247457,-0.0001312107684570121,0.0041367866189730785,0.26179418714082264,10.0,0.11359999999999999,0.07791495295712907,0.07714717545638343,0.1031111111111111,0.14577777777777778,0.01401007316926748,2.1596787602517313,2.131687740082425,0.12298374344738928,0.015125001152333267,0.001571034252762683,1.7775556985806185,2.2674884379268905,0.0018741918523279772,0.003014518764309674,-3.5283234674966106e-05,0.0001406555983750797,0.489932739346272,3.6925123500803454,3.6876823042135567,0.11101870801234377,0.012325153528730043,0.0011964754677542965,3.3992801385425806,3.9080214841564502,0.001589060943662677,0.011009329210116842,-0.00017730094026423374,0.004022259382954819,0.5087413456138696,9.0,0.7537777777777779,0.0732718141589517,0.08788967318940417,0.09866666666666668,0.1466666666666667,0.012430598256090797,71.0015408320493,845.0520833333334,146.91631917322772,73.68641326594748,221.96301071349703,1.0,1.0,93.75,155.05795287569094,122.95197233066253,59893.46218613288,1.26112619371964,0.09867771857114663,0.0,85124.65639988446,0.0,1.760208297305652,-0.3239500781266781,34.08042942921341,1161.4756700795954,-190.20051622070153,122.15434666571473,0.009841482253859635,1.8159177180563844,0.0008228564622924384,0.1750327080462832,312.35486288641624
7,5,1,0.09335346138533762,0.09815932288978949,0.052231289569581514,0.002728107610101475,-2.3066753427169712e-05,0.009703713554945195,0.2701142070473974,-8.959803519850266e-05,0.010302233230968743,-2.0239378236866676e-05,0.0039880045686852775,0.2604104934924522,11.0,0.3861818181818182,0.08241702426029475,0.0863385610639589,0.11022222222222221,0.15644444444444444,0.015751991426669592,2.2116278989261593,2.186840915304933,0.06378381453385427,0.004068374996489119,0.00048127298814082284,2.062378657502096,2.2674884379268905,0.0002977210570197786,0.00212179149375021,-5.29516985425064e-06,0.00012561648662566397,0.20510978042479433,3.7385671164649,3.7320769548820616,0.08248280086666314,0.006803412438809605,0.0004267990589614874,3.557670313177129,3.9080214841564502,0.00018558213411702939,0.01026689741532513,-3.1274963191183874e-05,0.003789952098669347,0.3503511709793212,9.0,0.4382222222222223,0.0780103975073582,0.08961878611964987,0.09999999999999999,0.15000000000000002,0.012328162342811755,66.41509433962264,903.4090909090909,148.80235987281588,127.59752321141465,256.62605790088816,0.75,0.75,78.125,171.94157091463876,84.64042453132991,45720.24994660655,2.0314355919965177,0.30205396697543296,0.0,106968.2181317134,0.0,0.8654919054096943,-0.15697410593161057,23.26587374258889,541.3008810060871,-112.2462840009343,117.02924901481909,-0.00015150650327129997,1.2622958752395501,-0.0001564396063503734,0.13521299478635643,229.27553301575338
8,5,1,0.0929798002318594,0.09714280346790982,0.05435798236135066,0.0029547902463969095,-0.0003349878508816059,0.004565127712945413,0.2701142070473974,-0.0005236066904775277,0.00974678338580143,-4.79384192663675e-05,0.0038917930511073737,0.265549079334452,11.0,7854.565090909091,0.08132416090921314,0.08698754613570456,0.12088888888888888,9599.744,2503.0589591940275,2.2116278989261593,2.1985706113176087,0.0453039887716155,0.002052451398618663,-0.0005697991398587441,2.1174203846033817,2.2674884379268905,-0.00017650713202334116,0.0016758309742975338,-2.4580005934200324e-05,8.815393755738193e-05,0.1500680533235088,3.7435123516887896,3.742085610672218,0.071191103722729,0.0050681732492603585,-0.0008454584574190382,3.577775821610281,3.9080214841564502,-0.0006576888856987623,0.009573854642463757,-6.128731870129605e-05,0.003697014649993032,0.33024566254616916,10.0,8639.728000000001,0.07216482450354747,0.087942079762648,0.1,0.148,0.010855951595232732,66.78260869565217,898.4375,187.3371688794031,51.55986946151909,275.6975055805426,1.0,1.0,140.625,191.43724947384482,111.34144961683307,66962.73597600443,1.7193709093302707,0.41759465478841873,0.0,70898.53651769669,0.0,2.56796789624362,0.3295378054754139,18.53339788195817,343.4868370509716,-105.4980790164674,69.06966988332576,0.028157155415981853,1.1261104941871518,-0.0007621957301335141,0.12629544960607628,174.56774889979317
9,5,1,0.06236235867319136,0.06958568267413133,0.05017823321816355,0.002517855088896412,-0.0003462820613690675,0.0025335761033907114,0.20207635347363526,-0.0001381420586931093,0.007669528992725745,2.5379213804135592e-05,0.002954073713641264,0.19954277737024453,7.0,0.5337142857142858,0.07707919560854419,0.0791915653951512,0.1248,0.1728,0.015658593261410923,2.1639830118890835,2.1553164911616887,0.06624044370976832,0.004387796382866987,-0.0009185344096809703,1.9844768211597108,2.237707192858722,-0.0010169262314453245,0.001023669584969631,-7.204166349386356e-06,5.095716696326293e-05,0.2532303716990114,3.6992247508015215,3.6760606975732424,0.09248152720343746,0.008552832873880142,-0.001179890266205986,3.4826873272195966,3.8650044689168626,-0.0010460367288506263,0.007281500161634394,1.3564773870360091e-05,0.00275044470189125,0.38231714169726594,6.0,0.12,0.06827151564038925,0.06994789518761697,0.11840000000000002,0.16960000000000003,0.01411088707651655,68.43564356435644,876.7361111111111,150.1309549245032,103.90592366281251,209.82538623420507,1.0,1.0,78.125,73.47258322742648,73.47258322742647,16959.009821624586,1.0000000000000002,0.3803245436105477,0.0,32959.120216475414,0.0,1.9717691651156168,0.29680418335504,15.557267194816779,242.02856257092233,-85.46210427937612,44.812533904130085,-0.0011132404609975452,0.9860649173858073,-0.00018700330251800328,0.11955341900793706,130.2746381835062
10,5,1,0.04957074246368735,0.06315830771670533,0.04810617375750313,0.002314203953587083,-0.00032256361601296215,0.0016637934212336307,0.17512040498431525,-0.00016874426352982936,0.006916316906870829,-5.587781660210536e-05,0.0027070553615469047,0.17345661156308162,7.0,0.5268571428571428,0.06110497249507712,0.0671473557373715,0.12000000000000001,0.17866666666666667,0.01319235920648737,2.1172992079002775,2.0852835194472017,0.09293441078407076,0.008636804707782407,-0.001305499095235083,1.940178623514422,2.22309127459352,-0.0011315138494628568,0.001016176074428837,8.909147996132016e-06,4.937617994838109e-05,0.282912651079098,3.5959770315027724,3.6046313802613392,0.11337525184569232,0.012853947731074159,-0.0015206495695724333,3.411743064400849,3.7936019088075015,-0.0012082598538876415,0.006694703017581541,-4.544685526950328e-05,0.002512807699599966,0.3818588444066524,6.0,0.5853333333333334,0.047629827280162296,0.056734895914278306,0.0992,0.16,0.011006592207689393,69.08545727136432,868.4895833333334,148.70566967528976,93.49647432820959,207.19087792620923,1.0,1.0,85.9375,120.82042405897964,150.87319987073948,57266.72270867781,0.8008077257093537,0.2879907842949026,0.0,62052.45290925996,0.0,0.6344818622774945,0.6258071555337925,21.406981135668964,458.2588413428869,-85.46210427937612,145.85216822154345,-0.0044553389886709946,1.0416811954707696,2.7210787609629333e-05,0.12409849443125216,231.31427250091957
11,5,1,0.04533529893007504,0.06207542579974287,0.05254296345708968,0.0027607630088530614,0.00017254293475572245,0.0016637934212336307,0.23109013069033066,0.00017128839324669925,0.0074415996403692595,5.7812377798548564e-05,0.002612895305460359,0.22942633726909703,6.0,1.0826666666666667,0.05973670849823955,0.08678870344899725,0.1376,0.2144,0.02102104015704382,1.9960681961251407,2.0326914227459505,0.0764084825455088,0.005838256204907324,-0.0009503626033965121,1.940178623514422,2.1634828136794395,-0.0007912248279163036,0.001344370039498576,-7.301881369356269e-06,6.944810349453193e-05,0.22330419016501746,3.540565446658234,3.5545150445841345,0.08601748844529569,0.007399008318436578,-0.0007276836671047002,3.411743064400849,3.7616331214191696,-0.0005719365238771192,0.007253169991159321,3.3236038065767116e-05,0.00240057100274192,0.34989005701832054,6.0,1.0773333333333335,0.05053292161902837,0.07919074254116154,0.11839999999999999,0.192,0.01843306954890802,77.08908406524466,778.3203125,182.06802455116835,148.80001623066752,270.3320681741871,1.0,1.0,125.0,191.09055677177162,177.49985056940326,106558.25264763884,1.076567423345826,0.48204386599180526,0.0,113657.12397201953,0.0,-0.8549883160600484,0.09411267211537866,20.843984014106148,434.47166958031266,-85.46210427937612,145.85216822154345,-0.0015303755375290892,0.9860498780002864,-3.432250369624255e-05,0.11719116275492382,231.31427250091957
12,5,1,0.049156258980511215,0.06145123495201705,0.04860572089601735,0.0023625161038215376,0.00033865984422496066,0.0016637934212336307,0.23109013069033066,0.0006662681730522463,0.0074709230048144995,-1.3204071414090086e-05,0.0025543936988711123,0.22942633726909703,7.0,0.950857142857143,0.04214309296120618,0.06630085822258901,0.11466666666666665,0.18400000000000002,0.01525088248204358,1.964367975952174,1.9665102489331363,0.07847086001031375,0.006157675870758258,-0.0009535428242809673,1.8172319115706,2.1171780311971737,-0.0011112914176657066,0.002006649790863314,1.5111601670158662e-05,0.00011819633605321766,0.2999461196265738,3.4948218756066867,3.4921551798573605,0.07743306111754693,0.005995878954033759,-0.0005751613841117904,3.3067155536073,3.6796724791127904,-0.00040732770086338764,0.007760085821801852,4.117737656225695e-06,0.002364196014161718,0.3729569255054903,5.0,1.2672,0.03956417622981299,0.07517561444516448,0.1056,0.176,0.016100752496153056,79.52662721893492,754.4642857142857,151.3089940185922,57.17075211993615,158.0256251823916,1.0,1.0,148.4375,99.67461411502725,169.3194756117221,53020.19863753949,0.5886777865034134,0.0947238798901203,0.0,130347.12670314158,0.0,-1.153871346587758,-0.037682734052336166,18.97069574169327,359.88729692389916,-64.22216866686794,145.85216822154345,-0.00038926857046614564,0.8428288710927553,0.0001349373916485973,0.10156572303246407,210.07433688841138
13,2,1,0.01992453696816042,0.030776477621361775,0.0298836819987475,0.0008930344498022653,-0.0001017404439571611,0.002804594233497792,0.1261404740139917,-6.645851204020797e-05,0.005445691705597293,2.4111828714081137e-06,0.0018446861253822158,0.1233358797804939,6.0,0.12000000000000001,0.05043317350919895,0.060723099482845745,0.14079999999999998,0.1984,0.014721905529413454,0.6154399548837233,0.6189806466635576,0.02486422103244547,0.0006182294875503036,0.00010239729900763365,0.5844435742119745,0.664286805326715,-0.0001023575039294763,0.0009173493057539457,-4.2360161404279374e-06,3.6661630141847034e-05,0.07984323111474056,0.6030996766738173,0.6053521251675157,0.0137680365837741,0.000189558831372142,2.3083131170418756e-07,0.5830820620907533,0.6448043745970196,-5.441004712280623e-05,0.0019234467053585152,-6.524120137506191e-06,0.0006273173805412599,0.06172231250626625,4.0,0.148,0.02222346228419303,0.031169002767632875,0.19199999999999998,0.26666666666666666,0.010532813693969622,65.54765291607397,915.3645833333334,148.56879244784122,12.757759076995718,63.78879538497859,1.0,0.6666666666666666,54.6875,39.32205435036848,22.702598664274337,2804.540032588715,1.7320508075688774,0.18216595318335002,0.0,83799.46351962956,0.0,-0.42667867892291245,-0.47272341059033385,14.329145708813297,205.32441674440253,-69.37575367222519,40.16404842581768,0.007916754192243722,0.8553483654207632,7.595590716848271e-05,0.0861090521297348,109.53980209804287
14,2,1,0.0187598950206778,0.02852406771122835,0.027690821790697207,0.0007667816114441513,-5.956333617152675e-05,0.002804594233497792,0.1261404740139917,0.00013784214412687276,0.004970253232093097,-7.012788862962603e-06,0.0017954672848337829,0.1233358797804939,6.0,0.10933333333333334,0.04260422807725065,0.045197613046043916,0.1568,0.20800000000000002,0.010892371540909062,0.5999287545762579,0.6099240304224051,0.03210982160043499,0.0010310406432117616,-0.00016709651262613307,0.5415821022829161,0.664286805326715,-0.00022243420854654977,0.0009964122382962299,-5.123881235986431e-06,4.027240883431262e-05,0.12270470304379888,0.5985274911440982,0.6016126147871129,0.014547530217462839,0.00021163063542799438,-7.456172555554179e-05,0.5796338131896603,0.6448043745970196,-1.7810242009535608e-05,0.0017537668029135387,9.133315907420998e-06,0.0006131078862610845,0.06517056140735922,4.0,0.14800000000000002,0.01798598904389659,0.02641883315665064,0.21599999999999997,0.288,0.011897731457851713,66.72985781990522,899.1477272727273,131.46688593371124,129.02456691338864,187.98764711743695,1.0,0.75,46.875,124.35747952915317,86.77679645126196,33902.00605350481,1.4330729482390876,0.20232675771370764,0.0,24173.655942802696,0.0,0.15450302073984407,-0.0902302154880023,13.591436180884983,184.72713745906938,-69.37575367222519,40.16404842581768,-0.006623707099178523,0.8284346742383174,0.00015769553355698127,0.08670860773847093,109.53980209804287
15,2,1,0.023745817686336976,0.02992568251620318,0.022294796686207513,0.0004970579592793295,6.475024557496352e-05,0.002825927450961197,0.11188572480972471,0.00010603645894264022,0.0037801765969563473,1.027928262647262e-05,0.001492055981596421,0.10905979735876352,7.0,0.52,0.028914566047452094,0.033130566390429626,0.15360000000000001,0.22080000000000002,0.009085222807368527,0.5874618266655922,0.5846665937211414,0.06097525335423848,0.003717981521613571,-0.0008417481232730525,0.4757449153518955,0.664286805326715,-0.0006066205536760164,0.0009505458327977055,-3.5055182539249034e-06,4.240877635566209e-05,0.18854188997481952,0.5923739682408593,0.5937720137438914,0.019656822730394895,0.00038639067985416934,-0.00025486139883673127,0.557071912373468,0.6448043745970196,-0.00016687400153368078,0.001522467070088987,8.467051349600925e-07,0.0006597897228238437,0.08773246222355158,3.0,0.144,0.012641415056011388,0.019790494512071266,0.16,0.24799999999999997,0.00590168420762226,68.90701468189233,870.7386363636364,121.77860937132279,35.58763116853242,89.4181495489031,1.0,0.75,62.5,62.68283803078599,71.33586862402213,14047.740559849162,0.8787001439788699,0.31341412452987877,0.0,21917.55422864735,0.0,0.05115723063231182,-0.13678754633806403,14.74597759171124,217.44385513525,-69.37575367222519,40.16404842581768,0.002558901379313564,0.9419324586643836,-0.00011047239156757473,0.10518433951774016,109.53980209804287
16,2,1,0.029395121803802278,0.06502220083983068,0.08896022157520066,0.007913921022708796,0.0008895739761791754,0.002825927450961197,0.33969700077125464,0.0007083078934149655,0.009524379572116173,-7.460607615170455e-06,0.0032236878456785,0.3368710733202934,7.0,0.9417142857142858,0.060979515218167156,0.08323309772868374,0.20800000000000005,0.2773333333333333,0.010120145891907253,0.5730576131948257,0.5578005759479382,0.05371250835568496,0.0028850335538595268,-0.0004515858018028747,0.4757449153518955,0.6553413994287153,2.3713602659922866e-05,0.0019207794856033987,2.4125982469563183e-05,4.484594934323909e-05,0.17959648407681977,0.5904635578959568,0.5964881342304866,0.03480404869289227,0.0012113218054172162,0.00014395284920603666,0.5554404125978801,0.7084316218285736,0.00023568513993083942,0.00335043747703364,6.479917974948115e-06,0.001146039939419045,0.15299120923069343,3.0,2.058666666666667,0.03776298092938424,0.06457963403193119,0.128,0.22399999999999998,0.007563639922821684,65.22292993630573,919.921875,167.27463777679918,23.4375,212.2355891750957,1.0,1.0,132.8125,149.15533665653737,193.3495104806966,90600.7402844957,0.7714285714285714,0.4078857919782461,0.0,31116.234479266364,0.0,0.10815840087038059,0.1459169123708242,16.900837272125415,285.6383004988636,-69.37575367222519,54.801649575387415,-0.0026135612072753786,1.0352052317378633,0.00024498452778611116,0.1097180809022627,124.1774032476126
17,2,1,0.05206235342081939,0.08937819729099877,0.08712813304424048,0.00759131156777487,0.0006672210628736649,0.006861844805489462,0.33969700077125464,0.00011912446819931458,0.01063939691725278,-1.3826814468721019e-05,0.00375500085271891,0.3328351559657652,8.0,0.8360000000000001,0.0722736353975789,0.08685291703793341,0.192,0.2514285714285714,0.010852778205078592,0.5730576131948257,0.5891391757303346,0.09805674689120385,0.009615125610885615,0.0009020411894027552,0.4757449153518955,0.767808229000045,0.0007493671194944831,0.0020875165706705405,1.283232049632127e-06,6.769135325351364e-05,0.29206331364814947,0.5919650657400428,0.6147849697554354,0.047974961575959395,0.00230159693821478,0.0005160413476880041,0.5554404125978801,0.7084316218285736,0.0002822906115026206,0.003713134040607406,-4.970657766925277e-06,0.0013069346223636,0.15299120923069343,5.0,1.2896,0.03400132458633696,0.05139615751125128,0.112,0.19199999999999998,0.006115491505238238,56.470588235294116,1062.5,128.8470508005519,0.0,187.5,1.0,1.0,125.0,0.0,0.0,0.0,1.9829476968653075,0.23540489642184556,0.0,8725.936982823248,0.0,0.7029295395558528,0.3743893912090121,20.12591110227204,405.0522976965568,-91.11836933240882,54.801649575387415,-0.004999201248797309,1.1422351695395996,-0.0005420250165187093,0.11887373490169488,145.92001890779625
18,2,1,0.06138868368300461,0.09837164642615193,0.08341401947477958,0.006957898644938907,6.609998410926305e-05,0.00791305640116408,0.33969700077125464,3.254725324799065e-05,0.011246436800007453,3.862395283549236e-05,0.003932201756029579,0.33178394437009057,7.0,0.5337142857142858,0.09414055211577312,0.11185397311448797,0.18933333333333335,0.24266666666666667,0.015182110824782692,0.657668107419368,0.646679639281731,0.13521530098442552,0.018283177620308788,0.0018505494979453925,0.4757449153518955,0.8949494979236404,0.001485800516721838,0.002054425536116067,2.6959845787935762e-05,7.155887243412617e-05,0.4192045825717449,0.6587506435091788,0.6366645340475284,0.052416053688262694,0.0027474426842508375,0.0006298560174868445,0.5554404125978801,0.7086933454868358,0.000488637653817328,0.003919685113942789,1.6223624729933574e-05,0.0013649375270073127,0.1532529328889557,6.0,1.1013333333333335,0.036740578579473805,0.053457362904404206,0.088,0.152,0.0070198070681783895,-1.0,-1.0,-1.0,-1.0,-1.0,-1.0,-1.0,-1.0,-1.0,-1.0,-1.0,-1.0,-1.0,-1.0,-1.0,-1.0,-1.0,-1.0,-1.0,-1.0,-1.0,-1.0,-1.0,-1.0,-1.0,-1.0,-1.0
19,2,1,0.0752209352426549,0.10215222586775109,0.08176538327163833,0.006685577901557913,-0.000567491213390643,0.00791305640116408,0.33969700077125464,0.00011178224219044193,0.011568798059534998,1.6825370442779498e-05,0.004077618575404188,0.33178394437009057,9.0,0.4346666666666667,0.08415582681408014,0.09665184676015624,0.11199999999999999,0.15771428571428572,0.012498465943831232,0.7676919110647975,0.7640608038603047,0.15496891023398443,0.024015363139108726,0.0021864817481729547,0.4798102641495977,0.9837561064808771,0.0020443891048070226,0.0017380709446796726,-4.960256505791236e-06,8.936753819262037e-05,0.5039458423312794,0.6773738420708766,0.6764743331691409,0.04573670084552742,0.0020918458042332683,0.0005321449902574075,0.5554404125978801,0.7511431950773176,0.0007123441894208125,0.003978073819366586,3.0660870375444813e-06,0.0013985789853740004,0.1957027824794375,8.0,1.215,0.03191746530005479,0.04601163635067909,0.10133333333333333,0.17066666666666666,0.006876956577789389,55.42268041237113,1082.5892857142858,151.88415925182144,0.0,78.125,1.0,1.0,171.875,0.0,0.0,0.0,1.7282077350739722,0.13199577613516367,0.0,2714.4881533238004,0.0,0.19464339147468737,0.018818821110289305,23.363009463805856,545.8302112058819,-91.11836933240882,62.507959420547536,-0.0013864552786101833,1.3201177132152475,-3.0286286443385996e-05,0.12203554225236393,153.62632875295634
20,2,1,0.0637870851697517,0.07605769121970338,0.05247459688222487,0.0027535833179520037,-0.00016957739866196194,0.005990664343652941,0.25132906452548526,-0.0001044570777494572,0.008860678511014715,-5.015476122097781e-05,0.003159476873319407,0.2453384001818323,9.0,0.4328888888888889,0.06679791465775332,0.07808875414237314,0.11885714285714287,0.16914285714285712,0.011101694616150019,0.8971415181294915,0.8751636492576164,0.10903203916788867,0.01188798556510801,0.0015087735184825992,0.6599948154100208,1.0283911766262583,0.0015473357965593646,0.0015765982243021398,-1.390290421701366e-05,8.356924783220867e-05,0.36839636121623753,0.7105318286685303,0.7044357091365824,0.036171881291206714,0.0013084049961451505,0.00044029122986218976,0.646604790213359,0.8097760846054165,0.0004781522340606553,0.0031152800680166984,-1.5775794933771865e-05,0.0011323236248320225,0.16317129439205746,8.0,0.858,0.02494426707622982,0.03608398726200024,0.12266666666666669,0.19733333333333333,0.004499585765226644,-1.0,-1.0,-1.0,-1.0,-1.0,-1.0,-1.0,-1.0,-1.0,-1.0,-1.0,-1.0,-1.0,-1.0,-1.0,-1.0,-1.0,-1.0,-1.0,-1.0,-1.0,-1.0,-1.0,-1.0,-1.0,-1.0,-1.0
21,2,1,0.05566713827566906,0.06856826394813206,0.04809242297824624,0.0023128811479185465,0.00012960065895836463,0.005990664343652941,0.25132906452548526,8.666946969921515e-07,0.008305020378645677,-2.0224700740891106e-05,0.002770333034057945,0.2453384001818323,10.0,8640.015200000002,0.05518097791309251,0.06892520033354785,0.1297777777777778,0.18488888888888888,0.017155600824703115,0.9775985337242841,0.9455704835376212,0.08738877432548671,0.007636797878110846,0.0011125761705824417,0.7672918631276422,1.0394684831632328,0.0010187455480469055,0.001609552409180366,8.213400969870472e-06,9.357460117523505e-05,0.2721766200355906,0.7264261955573476,0.7251480542144673,0.03529632197350587,0.0012458303448573934,0.00040900150588683143,0.648334274441323,0.8097760846054165,0.00033477604917933867,0.0029078658776216263,-1.2350951637898668e-05,0.0009954640920758783,0.16144181016409354,8.0,0.8540000000000001,0.021727113637019624,0.0323276470763285,0.15999999999999998,0.2304,0.009339654423050582,68.57142857142857,875.0,106.63009743300167,59.76046581807566,85.45188206076723,0.7272727272727273,0.36363636363636365,54.6875,59.743581945491734,65.41806215721277,12278.315964550573,0.9132582038568473,0.08167265599477296,0.0,14642.514083864178,0.0,0.5695160983844134,-0.018725182964523916,19.22797791452363,369.71513468140853,-81.67886782896105,62.507959420547536,-0.003524221682642777,1.2484614674170207,0.0004577794154559278,0.12808825757635128,144.18682724950858
22,2,1,0.06737327509905451,0.09820847803833936,0.09510046673888978,0.009044098773954682,0.000608115620709187,0.005990664343652941,0.4967949786145151,1.9582935200867664e-05,0.015032141143172655,-7.169338199593818e-05,0.004369830411999362,0.4908043142708622,8.0,0.48700000000000004,0.0951162756195212,0.1309341080792432,0.14200000000000002,0.202,0.03184303001421841,1.007248279775451,1.0344351309797595,0.09095788706238035,0.00827333721885274,0.0010783745375748074,0.8993335383353426,1.3106097071521368,0.0017307021070023867,0.002324150194656897,-2.2820188013949103e-06,0.00010849812678393343,0.4112761688167942,0.7425623024289857,0.7640821011952283,0.05209571881195274,0.002713963918534047,0.0005543204599513679,0.7123703118502246,0.9171816168361003,0.0005770931428261255,0.005085742650181163,-2.4290052167631634e-05,0.001497423890558283,0.20481130498587574,7.0,1.7691428571428571,0.032820266624187945,0.0562285923127999,0.17333333333333334,0.248,0.01783912323561463,66.6802860061287,899.8161764705883,110.36302994222152,79.70843572879448,114.1637129975397,0.7692307692307693,0.46153846153846156,62.5,80.43910039303908,67.91663074320509,17163.0003208736,1.1843800187494848,0.3270325070311989,16085.248357206332,10655.366262525722,1.5095913139820614,0.3339223269026307,0.12680599884173252,19.77869602486177,391.1968164438828,-97.67534806077646,87.87504719457519,0.001225520001212195,1.2107251171292066,-4.995302829459332e-05,0.12379368400727442,185.55039525535165
23,2,1,0.086242391912448,0.12115857150994556,0.10287898260042225,0.010584085060897985,0.000526874230641229,0.005990664343652941,0.4967949786145151,-3.590956251038763e-05,0.017429356981579703,-2.5897115153498614e-05,0.0054851217805066774,0.4908043142708622,8.0,0.483,0.13013594840502168,0.16379332969792704,0.1417142857142857,0.19885714285714284,0.04120979803384296,1.0385644851953697,1.150688069992166,0.1833004729618678,0.03359906338804443,0.002429252331484765,0.9689325301435475,1.542437849930565,0.0023906571214317275,0.002282079961264284,1.3023560974673281e-05,9.682519412505176e-05,0.5735053197870176,0.7878323349160551,0.8098492775935799,0.07693166569990782,0.005918481187362374,0.0009715400224272374,0.7180486338882331,0.9799729476655102,0.0007715771805574509,0.005864572781117294,-7.4397764742651504e-06,0.001810012306856002,0.2619243137772771,7.0,1.358857142857143,0.04570576003668566,0.07117053663300289,0.19733333333333333,0.26133333333333336,0.02289750373708277,66.65380906460945,900.1736111111111,107.26371107391711,79.70843572879448,114.1637129975397,0.7692307692307693,0.46153846153846156,62.5,80.43910039303908,67.91663074320509,17163.0003208736,1.1843800187494848,0.1234949058351343,182193.0257659308,90471.55946648357,2.013815466875275,0.4059231191980452,0.15856928946668677,16.231195255899575,263.4516994351369,-97.67534806077646,87.87504719457519,-2.5956804813136633e-05,1.014664043644079,7.226666708090724e-05,0.10879346949078729,185.55039525535165
24,2,1,0.11975248626204792,0.13709362636531458,0.09508227959826686,0.009040639893602993,0.00019820893212515667,0.012848391988011368,0.4967949786145151,-6.720196245227761e-05,0.01726379476851432,1.1385380212693214e-05,0.005651613743656856,0.48394658662650375,9.0,0.11555555555555556,0.11860133218168015,0.13262148084908737,0.11399999999999999,0.162,0.02757183660093495,1.31250316210206,1.2979527541827147,0.22645870477606372,0.05128354496885239,0.0031762373520067767,1.0024228871187049,1.5953715145482006,0.0023603712078488987,0.0023038212490838475,-3.7145610556135744e-06,9.981360579511976e-05,0.5929486274294957,0.878196997210181,0.8634785515879054,0.0839534381033025,0.007048179769365045,0.0011091220899287389,0.7337381850224988,0.9950469793490105,0.0007518244493905503,0.005876600419741644,7.82768670398321e-06,0.0019349389835705828,0.2613087943265118,9.0,0.760888888888889,0.037757410838209764,0.054157220069740206,0.15466666666666665,0.2133333333333333,0.018099560279601613,65.02673796791444,922.6973684210526,85.65274056770748,93.19278852643768,138.99518501852262,0.8,0.5333333333333333,62.5,96.81337645754904,65.20200981053675,19831.073414828006,1.4848219669741505,0.11414222120762468,14649.035410563185,28311.779726817622,0.5174183873960864,0.5102221308063266,0.266651646887352,15.433531562923827,238.19389650376598,-97.67534806077646,87.87504719457519,0.003157262749303108,0.9127671975882958,-0.0002765798892884662,0.09045608621240242,185.55039525535165
25,2,1,0.1265972708572042,0.1482960735520231,0.10532328480146948,0.011092994321371452,-0.0003767353902952103,0.012848391988011368,0.4967949786145151,-9.004740038028786e-05,0.018404763195183787,1.0333501238737654e-05,0.005986934391042291,0.48394658662650375,8.0,0.47500000000000003,0.14411904865066047,0.16404180993725306,0.11657142857142856,0.1622857142857143,0.03502145958328403,1.543779836736356,1.4368638292023626,0.18076480572276837,0.03267591498799019,0.0023341652143217093,1.0130180766230787,1.5968379971089042,0.00223129523010898,0.002418659298164407,-1.222875486488311e-05,7.663793611306345e-05,0.5838199204858254,0.9197403395857566,0.9127969147302089,0.06315895996507723,0.003989054223870228,0.0006440039238580345,0.7337381850224988,1.0413187505515327,0.0007104656291200928,0.00628484168081137,3.1587085912186673e-06,0.002059264063564966,0.3075805655290339,8.0,1.201,0.04628675729371384,0.06635020906960717,0.17279999999999998,0.23359999999999997,0.023809378633617293,63.1390134529148,950.2840909090909,146.5479588241924,65.10208329999894,240.2391386722821,1.0,1.0,109.375,169.64461935174955,74.80443252241135,39867.34321459579,2.26784180604437,0.2871088142405972,0.0,57595.08541528301,0.0,0.48968744919618856,-0.04711184088210917,13.780802765155356,189.9105248521135,-97.67534806077646,87.87504719457519,-0.0004886519329113961,0.7750146629840365,0.00014821102399349638,0.07279108491554497,185.55039525535165
26,3,1,0.22913286525765397,0.2883222637678467,0.21265049441096529,0.04522023277322798,0.0011384470826699723,0.036856695449009685,0.8835884037380338,-0.0003209128106588935,0.026819439832501568,9.635222477076023e-06,0.008451120351215494,0.8467317082890241,8.0,0.46699999999999997,0.1103920047000331,0.10596040196501538,0.0736,0.1056,0.01234532317125113,0.675118620334794,0.6326156455909119,0.3937504715775373,0.155039433867533,0.005361248033286991,-0.2308469844171277,1.1547233479781336,0.0057785878310649096,0.005663232693006323,-2.129228625137898e-05,0.00027700235720506624,1.3855703323952613,2.853751838660963,2.7462931437725664,0.8456749596522548,0.7151661373828427,0.010693373037353068,0.9799230970937456,4.274098678576875,0.008925698650199479,0.046582954319242385,-5.154628877239211e-05,0.01403344868745852,3.2941755814831293,9.0,1.0782222222222222,0.1984111148484173,0.3462823720538036,0.07999999999999999,0.144,0.05494046447715417,80.25078369905957,747.65625,134.98001515849487,85.923294280422,156.87375497513918,1.0,0.9,70.3125,105.85865428721452,157.12256362470666,52253.42933227338,0.6737329880898713,0.26764804282368687,59521.95950365544,78561.08326678992,0.7576519700157587,0.18113529861702343,0.031531578520815,4.054297204166535,16.437325819712584,-28.68654695238356,11.868987439464597,0.00013417130914447715,0.2642904298501977,2.5276832665845667e-05,0.028511961332069017,40.555534391848155
27,3,1,0.2693263770440101,0.31597221958748645,0.20921582292822832,0.04377126056353579,-0.0002601481331014276,0.013642246170781422,0.8835884037380338,-0.0004194534815670665,0.029532083713157416,5.471185308022411e-05,0.009407957286388057,0.8699461575672524,8.0,0.10600000000000001,0.14179470989898418,0.13705323010740095,0.07200000000000001,0.10666666666666667,0.015639735889387916,0.9503500308722785,0.9043024103747288,0.228140886917393,0.0520482642834547,0.003064241706893392,0.4802757737380017,1.188233942131471,0.002989026123021617,0.00438880844443442,-4.541708924136074e-05,0.0002558461896782896,0.7079581683934693,3.3310738076836843,3.238582611029524,0.47762414826152044,0.22812482700254286,0.004609719261535827,2.2998751695600363,4.274098678576875,0.0042274722093070816,0.04943288474332587,1.1778507669250408e-05,0.015411711066358434,1.9742235090168387,9.0,0.7537777777777779,0.22320579796498208,0.30989905738462764,0.08266666666666667,0.14666666666666667,0.05832341864307263,82.30118443316412,729.0296052631579,135.8508077595534,106.58336059208322,171.16329922036442,0.9285714285714286,0.7857142857142857,85.9375,120.59512011625756,127.73777582769166,48394.82871238733,0.9440834501371858,0.2528353680560572,38974.65861000659,204732.1498880409,0.19036901938127515,0.05374425800052692,-0.09973106344447029,4.407091038330298,19.422451420131228,-28.68654695238356,19.082662879456684,0.001976137173295181,0.26391125760389306,-5.761984346538074e-05,0.027812874440170988,47.76920983184024
28,3,1,0.2707497358878417,0.3208567397269243,0.2082568815401581,0.04337092870883144,-0.0013646089683102705,0.013642246170781422,0.8835884037380338,0.0003604326637087085,0.031083648148730846,-0.00016260184075129284,0.009991486174488128,0.8699461575672524,9.0,0.10844444444444445,0.16702225612609228,0.16796131769045428,0.07466666666666667,0.10666666666666667,0.016889181845572258,1.13402674140549,1.067841146959425,0.21820125082598524,0.04761178586202452,0.0029310555509456165,0.5992596463072926,1.386705047964478,0.003277787020546418,0.002752338636692059,1.6766825706561463e-05,0.00013893964515519633,0.7874454016571855,3.518091288063581,3.515592883546192,0.35987356330412557,0.1295089815652085,0.0025742250407859153,2.452581544517863,4.274098678576875,0.005993177198565581,0.0513860262643105,-0.00024150772013775413,0.016339541453253743,1.821517134059012,9.0,0.7573333333333334,0.24251911997552827,0.3353636877423936,0.1413333333333333,0.20800000000000005,0.07414554266534139,81.70212765957447,734.375,149.52025215191227,123.1415668493426,194.87798889447612,0.8888888888888888,0.7222222222222222,109.375,137.71202788230514,137.53134287834084,59500.88560622723,1.0013137732838406,0.2432971631550776,73974.21605251833,108266.35852990401,0.6832613293453116,0.1642466316038517,-0.027937187085222037,4.257551805959255,18.126747380426917,-28.68654695238356,19.082662879456684,0.0006596591525740216,0.26754879610324517,9.970800672458599e-05,0.03142409619924064,47.76920983184024
29,3,1,0.2498621616600017,0.28307652446288134,0.1933358283914034,0.037378742539790184,-0.0004549294020370756,0.013642246170781422,0.8835884037380338,-0.003061588270259544,0.030400500513410596,5.195048069766101e-05,0.010392943105211735,0.8699461575672524,9.0,0.11733333333333335,0.21925924542720973,0.23213032938764722,0.09333333333333334,0.13333333333333333,0.03563917894292552,1.1902577544075579,1.255502475164316,0.16154588463216854,0.026097072841589908,0.002244401139374297,0.9539884109566996,1.5717428126869957,0.0025931311553958622,0.0019326216205796107,-2.180986450819993e-05,8.931558588310669e-05,0.617754401730296,3.7032056994974294,3.7620624703350756,0.37117966769379285,0.1377743457092745,0.0029427607985049596,3.138701283261559,4.940438812522212,-0.0007548542554036382,0.050035636240390494,2.0156035216551773e-05,0.01709434576540779,1.8017375292606528,9.0,0.7591111111111112,0.32979738284393023,0.3834605043559105,0.14666666666666664,0.19733333333333336,0.0809983763610987,87.64621968616262,684.5703125,153.16472997814262,127.26464183935772,196.71372362522143,0.9,0.7,93.75,139.0581108857912,151.10675680830755,66013.09307656666,0.9202640161366104,0.09135340063033846,116142.94123864803,200282.42156426056,0.57989583075509,0.054010022126014016,0.08649137473127405,3.3590657812786078,11.283322922956865,-13.66194996207958,19.082662879456684,0.0009612881438090452,0.19424311967517302,5.423980891244528e-05,0.025087059425422775,32.74461284153627
30,3,1,0.2028807986955583,0.23095428960696845,0.1692220836003611,0.028636113578047597,-0.0006757439956659981,0.013642246170781422,0.8348955456563901,0.00037002767261400685,0.028640674775884303,0.0001559805817748277,0.010044570056843678,0.8212532994856087,10.0,0.4056,0.20785396383042296,0.22832372446673657,0.10285714285714286,0.1462857142857143,0.03761134898617065,1.3881707459246235,1.3786049569657668,0.17530543795996711,0.030731996578335877,0.0024693747443658696,1.125625481742568,1.5970156907252162,0.0017001969981759522,0.001891670850589278,-3.851703743072236e-06,7.165740082944988e-05,0.4713902089826483,3.9054019764433767,3.8787434338889617,0.3466183333971649,0.12014426904702817,0.0029533379992664663,3.138701283261559,4.940438812522212,0.003414833466038113,0.04742025536148616,0.000255620176899557,0.01655340088144282,1.8017375292606528,10.0,0.9832000000000001,0.30881826966279374,0.3706964342328801,0.14399999999999996,0.19200000000000003,0.0787705002779592,86.57824933687003,693.0147058823529,158.29917100569403,151.55941346764837,226.3764116729143,0.8571428571428571,0.7142857142857143,109.375,160.04116644627092,132.31501548197568,66525.89295911766,1.2095465194430044,0.424682549794029,103518.4570101035,521432.1610467718,0.19852718098993136,0.1398242970047956,0.02612456190981549,3.4613603157467905,11.981015235426721,-13.66194996207958,19.082662879456684,-0.0009222210912898323,0.2013637839203717,-1.0137766335655874e-05,0.025254607359324152,32.74461284153627
31,3,1,0.20635017516695586,0.22643070007951985,0.1595491688540508,0.02545593728201841,-0.0006443449457825501,0.03960137037879245,0.8348955456563901,0.00010730944797751625,0.02721886608534274,-4.9865754264020766e-05,0.009264771784087458,0.7952941752775977,10.0,8640.3088,0.18922822324584887,0.22457147703431826,0.106,0.15999999999999998,0.04288279947898921,1.5279474660117751,1.476901514608092,0.11539844715794476,0.013316801606464968,0.0013535958979341864,1.1922815666836448,1.5970156907252162,0.0014751361142570738,0.0019098817841619856,-1.1226187728216597e-05,5.0297240044876185e-05,0.4047341240415714,4.000101159754694,4.033145374830272,0.27197244035412477,0.07396900831217797,0.0011663614449325148,3.496847061862247,4.940438812522212,0.0025975333194951035,0.045286369617004316,-0.00010405876514616118,0.015302756409857132,1.4435917506599645,9.0,1.3920000000000001,0.28563745681242064,0.37543106607325205,0.09599999999999999,0.14857142857142858,0.07270110126321157,86.3568215892054,694.7916666666666,157.58457826055047,117.70718104155753,189.44305707784596,0.75,0.75,109.375,128.2535559326719,131.07782605908216,52813.93392316701,0.9784534866702989,0.38413521559588976,0.0,51814.939492672725,0.0,0.08163601921015837,0.044605403611072944,2.8952044269094515,8.382208673596086,-7.85883273533619,10.400578223629495,-0.0019070849848331984,0.18475666265345833,2.5332841359352255e-05,0.02436361143402972,18.259410958965685
32,3,1,0.19532599583453095,0.22169009151268335,0.15681350032386446,0.024590473883822635,-0.000643113937678305,0.03960137037879245,0.8348955456563901,-0.0006548473639399762,0.026052886731769864,-5.06194610808122e-05,0.008806922029536788,0.7952941752775977,10.0,8640.302399999999,0.17270119414539306,0.22111128322002632,0.11733333333333332,0.17244444444444443,0.048211161354969355,1.5564272303871594,1.5442607355267177,0.04806133810478348,0.002309892220422313,0.00035579904085156374,1.3896364438847693,1.5970156907252162,0.0006617668732933305,0.0017508933164387106,-2.550634404753736e-05,6.0535468581992695e-05,0.20737924684044695,4.097502432272149,4.1360912860130945,0.2170606613411741,0.04711533070186787,-0.0004747594128785949,3.85018028368918,4.940438812522212,-3.0171488229197945e-05,0.04348115219182555,-0.00011958637842864282,0.014532842910646947,1.0902585288330315,10.0,8640.305600000002,0.24902339709282195,0.3219215575691731,0.10133333333333333,0.15288888888888888,0.06335887414957748,79.52662721893492,754.4642857142857,136.27044758568925,104.45110904000732,245.93869122964367,1.0,1.0,117.1875,173.70738433093092,39.35437828048806,21476.386407698377,4.413927799668866,0.09474182851729039,0.0,86708.66441388421,0.0,0.06719845018278595,-0.04635047362460629,3.2195006667947412,10.365184543491782,-10.928852593501636,9.046186867083481,-4.418451910165623e-05,0.1935998816291283,7.28466718906205e-05,0.021685364524870524,19.975039460585116
33,3,1,0.1963670952844659,0.2559901495590821,0.22409734041583634,0.05021961798145124,0.0014916458015797353,0.03846526257348115,1.048780496454829,0.0017203585784952072,0.02801292712001568,-0.00014870798286734755,0.008256396328656936,1.010315233881348,9.0,0.7502222222222223,0.14654174141383164,0.13805636132684987,0.1,0.14800000000000002,0.02478138519279608,1.551844799373812,1.5413778414902368,0.04712017446785387,0.0022203108418809873,-0.00048668317641487773,1.4301883439201917,1.5970156907252162,-0.00014324637503514056,0.002324289449850666,2.348581175927039e-05,0.00013844785533908494,0.16682734680502453,4.109751708646183,4.187758272644227,0.3210247906025615,0.10305691618141848,0.0016507276517258584,3.801774901767932,5.289559810233921,0.002595734153839903,0.04597161233847455,-0.00020976806775599804,0.013508973236801107,1.4877849084659895,9.0,0.7520000000000001,0.19391145414621785,0.21260637538228444,0.088,0.136,0.034965060488680776,67.28410513141426,891.7410714285714,159.6138229130656,141.70591521263324,336.0283307438526,1.0,1.0,101.5625,237.25802045994027,111.4784103802291,83092.44581728887,2.128286720726495,0.160294942694558,0.0,104180.13972919149,0.0,0.28306380967044914,0.03745310714932864,3.416175419234456,11.670254494981712,-12.655378133447917,9.08057755159656,0.0007705390471344667,0.18960749547983358,-3.866335721937978e-05,0.019494083562283666,21.735955685044477
34,3,1,0.2547800375745817,0.3313408654360852,0.23288093164878798,0.05423352832560746,0.001207513486980883,0.03846526257348115,1.048780496454829,4.374373527992221e-05,0.03229255894633998,-0.00024795556134764123,0.010313096809356227,1.010315233881348,10.0,8640.018399999999,0.16962699253557928,0.19383095795352884,0.1031111111111111,0.1582222222222222,0.034057981207635625,1.5507123625804797,1.5808815213228489,0.1144593966095991,0.013100953472233504,0.0009070342809761187,1.4301883439201917,1.9030667741141185,0.001433542253139502,0.0035924232100998615,2.8481945307153265e-05,0.00014266250961627775,0.47287843019392684,4.288811114215603,4.376684405559146,0.40265571516741555,0.16213162495698288,0.0034779571951963953,3.801774901767932,5.384247570629766,0.002433306511558155,0.0529313603821248,-0.0003499529883693009,0.01686375313855244,1.582472668861834,8.0,0.47500000000000003,0.2863857851335312,0.3355215912251981,0.10971428571428572,0.16457142857142856,0.06423994500601839,75.04885993485343,799.4791666666666,100.82531605523927,120.58163440406484,155.98936595699936,0.6666666666666666,0.3333333333333333,54.6875,99.36866681426517,44.50001950686215,13891.832467473212,2.233002769783999,0.41714464490562103,0.0,12317.677806241463,0.0,0.21495163773760767,0.0012839043373589357,4.583500141572178,21.008473547792175,-27.63018306521337,21.674124826824517,0.0010825944131694404,0.2401343336710131,4.7241573997654624e-07,0.022165011341494182,49.30430789203788
35,3,1,0.27020702985428735,0.3340052429704405,0.23250679985202669,0.0540594119774304,-1.0231933052188076e-06,0.03846526257348115,1.048780496454829,-0.0006176045893806998,0.03302780847647645,-0.00019766437987894455,0.01105057990105963,1.010315233881348,8.0,0.467,0.2007854813770084,0.21279438591333188,0.11599999999999999,0.16799999999999998,0.03968804272945786,1.5822525609182003,1.7109645908173685,0.23121291067550565,0.05345941006303935,0.0028526440329989353,1.4301883439201917,2.1303244067738683,0.0024150752791750013,0.003713624560647966,-1.1258016532821048e-05,0.00016295475099068556,0.7001360628536766,4.634023009723302,4.595076837121553,0.4496229119969113,0.20216076299258223,0.004692380284127853,3.801774901767932,5.440986249594213,0.0029686589222276422,0.054533237492177644,-0.0003951826177387837,0.018034490795815036,1.6392113478262815,9.0,0.43111111111111117,0.3139837653625281,0.36458169611471636,0.10800000000000001,0.158,0.05993830323551131,76.51307596513075,784.1796875,103.38195231260069,107.13099822763718,156.48419948192853,0.8,0.6,46.875,102.82271035926354,81.94563985121479,26470.66006225431,1.254767313379386,0.3986922892911251,0.0,5715.290822223671,0.0,0.27327804648556175,0.025802187943253056,4.614113827124858,21.290046409664807,-27.63018306521337,21.674124826824517,0.0003398564639701419,0.2397394717130932,-4.926426464218609e-06,0.02147023522003934,49.30430789203788
36,3,1,0.2194892606620675,0.3000758073194417,0.2526354915485788,0.06382469158999203,-0.0020373695538619487,0.02650131973579818,1.048780496454829,-8.925110303576982e-05,0.03182115089637907,1.186969016327595e-05,0.010582407450019374,1.022279176719031,8.0,0.46900000000000003,0.19521756299650514,0.2068365684515534,0.11599999999999999,0.16799999999999998,0.03914889116722508,1.9057806117614169,1.8346234656167482,0.2540723627658261,0.06455276552140954,0.003363910725644235,1.4301883439201917,2.1303244067738683,0.0018925245048417435,0.004072872747695439,3.742291214240319e-06,0.00015721148993922256,0.7001360628536766,4.776387170720499,4.742723310655593,0.37381717082422855,0.13973927720303048,0.0021825195817359606,3.801774901767932,5.440986249594213,0.0030051598020661486,0.0524050477528671,-1.107367520564358e-05,0.01729560777328402,1.6392113478262815,9.0,0.42933333333333334,0.3005176249326402,0.35001219318379767,0.09999999999999999,0.15000000000000002,0.056879433648240885,70.30514385353095,853.422619047619,159.01396069751868,126.96262964813059,186.98776757642273,0.8571428571428571,0.7142857142857143,62.5,131.93503279216594,187.70748776914732,77802.15013447062,0.7028757049608307,0.05582849486377848,109195.17972674067,92817.80945035824,1.176446420933275,0.1883239537217795,0.07001562831280038,4.238917206637597,17.968419084728286,-27.63018306521337,21.674124826824517,0.000473177255584184,0.21186693917970556,-8.667132179875078e-05,0.01767846064177898,49.30430789203788
37,3,1,0.15685965978361763,0.20742467168068124,0.1834573773153267,0.033656609291418144,-0.0020296426547185458,0.006006996794475839,0.8111164123469403,-0.0016036198320637245,0.023921710603092033,0.00014794838527697294,0.00893833413052182,0.8051094155524645,8.0,10799.646,0.18143880809499577,0.2558796833386101,0.13942857142857143,0.1897142857142857,0.04087391513739813,1.9703616525690046,1.9493149670195917,0.1460745467971815,0.021337773222001963,0.0009980164705289886,1.5422437732899648,2.1303244067738683,0.001552819014983553,0.003804114548890158,-2.824163216605206e-05,9.972587590626284e-05,0.5880806334839035,4.744299374935016,4.778893189760157,0.2360166851092946,0.05570387564997993,-0.0016989956424766242,4.40115006566333,5.440986249594213,-8.159878027182803e-05,0.04022829294893516,0.00020520630258905233,0.014551747577205013,1.0398361839308832,9.0,9599.696000000002,0.28429743330376467,0.33923384225283887,0.11,0.164,0.05409239525525286,70.16611295681064,855.1136363636364,151.21003843376437,119.872514125871,162.27233364889142,0.7857142857142857,0.5714285714285714,54.6875,114.64612534282372,192.81244314986097,69445.53243392381,0.5945992046463335,0.05318017443097213,119621.50934114197,153415.1298208632,0.7797243301936341,0.1825368188573095,-0.031076679033693433,3.9769087609991183,15.815803293311543,-27.63018306521337,21.674124826824517,-0.001236752270743177,0.1998158715330737,3.3564994339139915e-05,0.016960666896890936,49.30430789203788
38,3,1,0.09610077329092159,0.1273271015981205,0.10828243404742477,0.011725085523234894,-0.000745002505490147,0.006006996794475839,0.4960793532981621,-0.0005400535262665603,0.017371773171642457,-2.671913510213722e-05,0.006173008101239772,0.49007235650368625,6.0,14399.490666666667,0.1673535774036294,0.22244396199304614,0.16266666666666665,14399.586666666664,3804.2097661181488,1.9703616525690046,1.9902862367099479,0.08313557552964054,0.006911523918644567,-0.0009096237593182224,1.8603195554259833,2.1303244067738683,-0.00019488138798223937,0.00276147245848009,-3.442331420234641e-05,9.188975809649529e-05,0.270004851347885,4.692273597485464,4.714607268430738,0.25063313722230485,0.0628169694738947,-0.0027200959926741773,4.298894525067528,5.440986249594213,-0.0012289806372629923,0.029728074758225427,-9.945996659030306e-05,0.009999156597287227,1.1420917245266855,7.0,12342.432,0.23920228237236024,0.34222095169955075,0.11200000000000002,0.1664,0.047492835778632114,66.6802860061287,899.8161764705883,152.53476651463671,126.31923446931422,207.74656953311595,1.0,0.8888888888888888,125.0,146.77071422464476,191.43724947384482,88270.52835630246,0.7666779303820773,0.06540650140623978,78036.21109778571,172816.43409714318,0.4515554987896589,0.2655776693670412,-0.005448006191118038,2.2245828782153456,4.948768982048871,-9.634296492814272,5.807163567167501,0.0003164946242115102,0.12179795869308897,-5.744459611259497e-06,0.013511209301344399,15.441460059981772
39,4,1,0.3240773783045957,0.4003380290826209,0.2575441306518857,0.06632897923323557,-0.001806564148258904,0.05978837396091619,1.1419039002399871,2.9916042941377277e-05,0.03910131538511127,0.00014161109013657237,0.012731108770536388,1.082115526279071,8.0,0.48900000000000005,0.3060748601542109,0.4074745094010313,0.12342857142857143,0.1782857142857143,0.07519931912697557,2.4412580124648784,2.531174425324264,0.18459950093630445,0.03407697574593267,0.0023616554306326574,2.3000758037119935,2.8278115945747846,0.002052777910241707,0.003297018890033187,-9.570223847820322e-06,0.00018269444241386377,0.5277357908627911,2.5129766552503394,2.4962416451377987,0.18992020701459036,0.036069685032464854,0.00038190040648209436,2.1394693017454385,2.927106538348002,0.0014308105399074612,0.02755077593309228,8.348378108338078e-05,0.008750510921851005,0.7876372366025635,8.0,0.8460000000000001,0.21349558753533504,0.29955384406294827,0.11466666666666665,0.17333333333333334,0.05407364742066458,69.50226244343891,863.28125,126.15433798402455,38.866696761977344,97.89034442298178,1.0,1.0,70.3125,67.82716935228648,50.85631471207634,10836.734956505526,1.3337020139247375,0.2896451846488052,0.0,59404.85377518822,0.0,2.5325314427777856,-0.07939645257059619,29.50553172984196,870.5764026607105,-87.44046446657391,80.01232262557683,-0.0018066342030722724,1.1347558232215675,-0.00038225471735092167,0.09351524968811066,167.45278709215074
40,4,1,0.22612277449961538,0.28034454887005306,0.1769531428124091,0.031312414751188844,-0.0003965229097812216,0.05090439203770954,0.797274933914907,-0.0013700960005639637,0.03417138005322274,0.00018316993301477675,0.01066056558943555,0.7463705418771974,7.0,0.13942857142857143,0.3057399237324613,0.38067944705965345,0.1417142857142857,0.19657142857142856,0.07983577722552591,2.7620580933539656,2.6614102746633077,0.21855252992563926,0.04776520833689744,0.003063056713646755,2.3000758037119935,2.9333059781581756,0.0025504010210110005,0.0024722971544072006,8.501872618954058e-06,0.00014128599714011614,0.6332301744461821,2.527465965874806,2.5032290973388474,0.18623137094389156,0.034682123523641334,0.0018393277690536773,2.1394693017454385,2.940036402009605,0.0008410770016660259,0.023958241386681827,0.00013373397894337613,0.007414715037631687,0.8005671002641663,7.0,0.5542857142857144,0.21482881749612354,0.29164350771963227,0.14133333333333334,0.20266666666666666,0.06218845315941757,68.87892376681614,871.09375,137.71955127972026,33.14563036811941,70.74519639169857,0.75,0.75,46.875,44.879395676078346,130.84479862847058,18448.17187491727,0.34299717028501747,0.1435544071202986,0.0,2657.2769085225927,0.0,2.7846484890202428,0.19984774414269424,27.52647314704821,757.7067239151663,-87.44046446657391,80.01232262557683,0.011942493775637086,1.105841746486117,1.5562852730263467e-05,0.09615672812179935,167.45278709215074
41,4,1,0.21051353127168537,0.25801333042321184,0.17943180306303408,0.032195771950451445,-0.0009397714421981243,0.05090439203770954,0.797274933914907,-0.0011608924623654807,0.03279405229310749,-0.0002904378768444691,0.01034438957921116,0.7463705418771974,6.0,0.14400000000000002,0.30367030395268835,0.3840612140352148,0.136,0.19199999999999998,0.07892802415998877,2.8300455807212925,2.803281658568659,0.13576663960482785,0.01843258042958721,0.0017390441270504486,2.443400327535464,2.9333059781581756,0.0017840883692372069,0.0028129852853883684,-2.865982551932868e-05,0.00012570218665897785,0.4899056506227115,2.559472214981385,2.5857034908143954,0.13189872759743299,0.01739727434182183,0.0005508547234325903,2.3420044437290883,2.940036402009605,0.0004211195868369266,0.022926333462152636,-0.00021176877453001988,0.007171539363733688,0.5980319582805165,6.0,0.6253333333333334,0.21291570002787422,0.2872709784909915,0.14400000000000002,0.20533333333333334,0.06326582925324598,71.8716577540107,834.8214285714286,105.59710868316849,33.14563036811941,70.74519639169857,0.75,0.75,31.25,44.879395676078346,130.84479862847058,18448.17187491727,0.34299717028501747,0.1712035610340695,0.0,16348.992612243506,0.0,3.056226740789879,0.7176158164890597,22.489875608750854,505.7945048970866,-87.26440216067678,78.51955574606114,0.010689418525507885,1.0093857556458343,-0.0005551074656174783,0.09087158551248387,165.78395790673792
42,4,1,0.18190161313374864,0.21644957548139107,0.1408129995546184,0.01982830084356896,-0.0003224769293686901,0.05090439203770954,0.6387808886142703,0.0009287159865745171,0.02726127531854882,-0.00010876106855324977,0.008858827389167174,0.5878764965765607,7.0,0.5428571428571428,0.2275790619632523,0.2704024329368449,0.13028571428571428,0.1851428571428571,0.05181353300624554,2.878810992190603,2.866195641080186,0.05851401983128421,0.003423890516815922,0.00042629290823730973,2.7616817585195066,2.9333059781581756,0.0005578963513004982,0.0019168870616676765,-3.998137111300518e-06,0.00012098066407396037,0.17162421963866903,2.56373766386227,2.6004216210375537,0.10180246572149493,0.010363742026976151,7.082705533949661e-05,2.4527106148066253,2.940036402009605,0.0010274421564312778,0.019126618989812237,-7.339490609579122e-05,0.00619566752634086,0.4873257872029795,7.0,0.5497142857142857,0.15612709243671752,0.19646193180755306,0.128,0.18742857142857142,0.038522469355468034,75.29411764705883,796.875,118.3105905375057,61.88663874122992,115.61444208553705,0.75,0.75,62.5,81.70508071621832,167.80969940633278,43074.07853189373,0.48689128819889266,0.13950892857142858,0.0,42727.08892250974,0.0,3.2791935457586945,0.03812673639671059,20.769638597947978,431.37788748937044,-87.26440216067678,78.51955574606114,0.0007223245988164845,0.9650895359896933,5.430020368147025e-05,0.0901557811519793,165.78395790673792
43,4,1,0.12857831930620472,0.17271347450781077,0.13987255974939278,0.019564332970847455,-0.0006342515234324372,0.003982318765104617,0.6387808886142703,-0.0007348481008661339,0.02422296173528436,-0.0001592129346072231,0.007430454016969649,0.6347985698491657,5.0,1.2896,0.22845751162770994,0.33057784019452074,0.1408,0.20800000000000002,0.07085148850085148,2.897664532491696,2.8897373421594144,0.0343159745048168,0.0011775861062152365,-0.0002581196164813355,2.8135215613593116,2.9333059781581756,-7.178722532805067e-05,0.0019288712612791324,-2.4612071011880418e-05,9.511631873828688e-05,0.11978441679886398,2.5586187257028836,2.5864785181178096,0.10778220289302118,0.011617003260472384,-0.000616183110422563,2.4173581992861957,2.940036402009605,-0.0005243602119008354,0.017106835449509705,-0.00013396632433803162,0.0052648197031566705,0.5226782027234091,5.0,1.2896,0.15807714679896065,0.23430775892442623,0.13440000000000002,0.2048,0.050978505368369155,74.74452554744525,802.734375,121.51828304923657,52.40784322265132,100.65702130254004,0.75,0.75,62.5,70.96055517415996,165.174800873953,36822.279418709084,0.4296088434718978,0.1558117793705204,0.0,27667.338018268863,0.0,2.6652379324666007,-0.08159226703208398,20.244937456074773,409.8574926003793,-87.26440216067678,78.51955574606114,0.007748567409219929,0.953683681853342,0.00010745210397631871,0.08696544423089125,165.78395790673792
44,4,1,0.15314404072324805,0.22277478028971037,0.20066030639155816,0.04026455856115399,0.0008781579661901089,0.003982318765104617,0.934625862633399,2.520846294317332e-05,0.02810186565603272,-2.3450464763680033e-05,0.008321755587186298,0.9306435438682944,6.0,1.564,0.22352205597377792,0.3437387604974847,0.13333333333333333,0.20266666666666666,0.07618043779988244,2.885647852279095,2.882401912144476,0.04325377437589765,0.0018708889977610598,-0.00010987470070141379,2.8074865305320817,2.9827606961937647,0.000241958969490839,0.0022889008950905416,9.490117861850796e-07,0.00013915570453339424,0.17527416566168297,2.57145082796783,2.615959079164535,0.14141474109678723,0.01999812899947136,0.0005291568021390077,2.4173581992861957,3.060208661343094,0.00018563656235536704,0.019391326225228336,-1.590996345310902e-05,0.0057394077874814535,0.6428504620568982,6.0,1.5666666666666667,0.1573590736979075,0.2410982726341154,0.1248,0.19519999999999998,0.037508749907440624,-1.0,-1.0,-1.0,-1.0,-1.0,-1.0,-1.0,-1.0,-1.0,-1.0,-1.0,-1.0,-1.0,-1.0,-1.0,-1.0,-1.0,-1.0,-1.0,-1.0,-1.0,-1.0,-1.0,-1.0,-1.0,-1.0,-1.0
45,4,1,0.11553904901603182,0.198134975875878,0.20193094813873375,0.040776107816207975,-6.57350593404914e-05,0.003982318765104617,0.934625862633399,-0.0005441556649642703,0.025786065794334765,6.297707842793075e-06,0.007417283636766082,0.9306435438682944,6.0,1.5506666666666666,0.18305547094710226,0.2844805602450596,0.12000000000000001,0.18399999999999997,0.06325171950032733,2.861803977599652,2.8663665513999184,0.05764006285987966,0.0033223768464908784,-7.578287201760563e-05,2.7448981350994006,2.9827606961937647,-0.0005195206430739424,0.003089033544190226,8.974295205487851e-06,0.00018240533304697434,0.2378625610943641,2.5383022138203124,2.5879160686305633,0.1476242950814754,0.021792932498302522,-9.779331343509681e-05,2.3948446008868913,3.060208661343094,-0.0007571211818900256,0.01780464152518423,4.860846715112888e-06,0.005143855566778615,0.6653640604562026,6.0,1.5506666666666666,0.1249779880731398,0.19723015221172635,0.0992,0.16319999999999998,0.02600448025944182,75.9322033898305,790.1785714285714,146.77930556047855,115.76099359840036,238.33460809682396,1.0,1.0,46.875,157.89069157525122,161.96158130693973,80337.51759255353,0.974865090234124,0.18086453246518358,0.0,15369.780720401344,0.0,2.1439345108431285,0.004198729353165179,24.76124739105018,613.1193723607893,-134.79298964344596,107.36299119533162,-0.0033574346053728533,1.1091785254981272,0.0005812001815083301,0.08823708766591092,242.15598083877757
46,4,1,0.09956787126338011,0.17713598175953865,0.19786337410467325,0.039149914812085886,-0.00045075006698412493,0.003982318765104617,0.934625862633399,-0.0006007882254364566,0.02422116598425677,0.0002073953484105265,0.007179423179633613,0.9306435438682944,6.0,0.5826666666666668,0.16007514604330045,0.20513503739407624,0.12266666666666666,0.17066666666666666,0.04558785574402055,2.83003527410378,2.832139739726313,0.08453856386605278,0.007146768780534686,-0.0008067438423058497,2.6816779082793394,2.9827606961937647,-0.0009388211757810127,0.0029255463257171735,-9.082388279725574e-06,0.00017529101698868376,0.30108278791442533,2.490027067734086,2.5498373039421787,0.15641143060365711,0.024464535623482647,-0.0008678780539140309,2.35560332062204,3.060208661343094,-0.001065385255902219,0.016622526770385972,0.00013815217995589204,0.004961675786534103,0.704605340721054,5.0,0.6864000000000001,0.12504177110798195,0.16779530437838402,0.108,0.15999999999999998,0.012777981656821629,-1.0,-1.0,-1.0,-1.0,-1.0,-1.0,-1.0,-1.0,-1.0,-1.0,-1.0,-1.0,-1.0,-1.0,-1.0,-1.0,-1.0,-1.0,-1.0,-1.0,-1.0,-1.0,-1.0,-1.0,-1.0,-1.0,-1.0
47,4,1,0.13011737211807867,0.20272815630126514,0.19223202894446814,0.036953152952106834,-0.0011678370863924914,0.014640722184540312,0.934625862633399,0.0003309040675374983,0.02444350047492173,7.797263780821503e-05,0.007537122513767142,0.9199851404488587,8.0,0.463,0.14263056399342278,0.1736541091344089,0.11199999999999999,0.158,0.03714043635438237,2.7455159783144722,2.781483862328566,0.1021809786609293,0.010440952400105289,-0.001220381480480944,2.6562382252298087,2.9827606961937647,-0.0006546101281351126,0.0028710826737000108,4.157595474350388e-07,0.00017114055009992944,0.32652247096395604,2.482355850423072,2.5325640144267654,0.16245686549709534,0.026392233147141328,-0.0016478289223772781,2.3226572414931037,3.060208661343094,-0.00022189746740751044,0.016762092460270453,5.3515223748365943e-05,0.005192960389215969,0.7375514198499902,7.0,0.5200000000000001,0.10673676633072228,0.13447914936048613,0.09600000000000002,0.14666666666666664,0.010863786971622975,62.52374491180461,959.6354166666666,195.41230089073136,175.94610325324058,331.7508006772553,1.0,0.8,148.4375,231.18664672727095,198.45595386634284,144137.42233230756,1.1649267367557627,0.1737619461337967,0.0,195379.87524454715,0.0,5.096654456778115,0.43949713845634386,27.496679952489963,756.0674084096635,-134.79298964344596,107.36299119533162,-0.0006242010377413144,1.1922822777111517,-8.14296645353137e-05,0.08986747284241409,242.15598083877757
48,4,1,0.1070024422552347,0.13261867462327911,0.08568053430327031,0.007341153958493881,0.00021375546425110288,0.022843996436165272,0.39383581634664694,-0.0002013920911062257,0.01354248846709432,-1.5471460427920503e-05,0.004584611713472599,0.3709918199104817,9.0,9599.683555555555,0.08983329943089935,0.09851706402508185,0.11733333333333335,9599.742222222225,754.4352623625471,2.68108397948044,2.7157830412888466,0.09732359301105552,0.009471881756581573,-0.0012925638023740611,2.572074714343651,2.9824147923080515,-0.0017162294785547279,0.0017647892606577878,-6.585779916599976e-06,0.0001212589252303933,0.4103400779644004,2.435260512726315,2.4389523200678465,0.07856289141599021,0.006172127907640668,-0.0007436374028667681,2.284661459039223,2.6183026319516203,-0.0013218837592513604,0.00946122378411543,-1.9568735857533605e-05,0.0031646628614516257,0.33364117291239737,8.0,10799.632000000001,0.06103995494470427,0.10419501954918015,0.10285714285714286,0.15771428571428572,0.01374754114511426,72.60504201680672,826.3888888888889,168.35802670000913,77.95119555779046,125.97277731716484,0.6666666666666666,0.6666666666666666,93.75,82.67972847076844,229.87579677826983,59709.32504639481,0.3596713078520329,0.13448090371167296,0.0,35143.617695789,0.0,2.1306669860840524,-0.2670352623808055,26.75317338620067,715.7322862321159,-134.79298964344596,107.36299119533162,0.014769505208779487,1.1426430084928525,-0.0001923435080543712,0.08450463302970097,242.15598083877757
49,4,1,0.11448094187040964,0.14330478126542315,0.09993898799474145,0.009987801321413074,-7.751384898228102e-05,0.012082511343329766,0.40338811556316545,0.0005434276025626121,0.016206383653653775,-8.221235647686854e-05,0.00519924025975134,0.3913056042198357,8.0,0.124,0.1086537418157593,0.1262083736587362,0.11800000000000001,0.166,0.02598377584656703,2.6556780929621846,2.6291343340478686,0.08497390895321233,0.0072205652027888196,-0.0011913011303263615,2.470678234438407,2.7455461310624747,-0.0010944971143723391,0.0009630252509890743,7.906864561002998e-06,6.435511618701556e-05,0.27486789662406785,2.3871007331103034,2.386594033205876,0.0907740679015426,0.008239931403393868,-0.0008740547632920712,2.227281819659413,2.5922534088740274,-0.0003422296889840424,0.011151631861662561,-6.15640578171627e-05,0.0035769367111264817,0.3649715892146146,8.0,10800.002999999999,0.07870525086921609,0.10165437127967536,0.10514285714285714,0.15999999999999998,0.01823727485503801,72.96912114014252,822.265625,164.60800307923785,70.3125,282.3329843686352,1.0,1.0,101.5625,193.34951048069655,116.00970628841787,70467.24244349658,1.6666666666666674,0.15206812652068125,0.0,23633.61370414646,0.0,2.352617985885912,-0.006446891885266777,18.555465769142522,344.30530990981987,-109.41541845539591,37.825780460265,-0.0018594742820234082,0.7988760930148178,-0.0007102331112535262,0.06307055034481646,147.2411989156609
50,4,1,0.14522763988289608,0.1685811717051378,0.10993734722778095,0.012086220315481677,0.00010328757995179342,0.012082511343329766,0.40338811556316545,-9.493613806810854e-05,0.018796640404405766,-0.00012892732242909656,0.0059779939554078995,0.3913056042198357,8.0,0.134,0.13739361050242485,0.16904888678100902,0.134,0.188,0.0371914752890547,2.6155882743021057,2.5977161275896483,0.07410610996027683,0.005491715533444641,-0.0004959273955493234,2.470678234438407,2.7036639449164612,9.076077010425805e-05,0.002388657392345237,2.1085259113521695e-06,0.00011109241923558639,0.2329857104780544,2.3815936301665337,2.382337881045141,0.10045695113138406,0.010091599030613284,-0.00027139590206764255,2.227281819659413,2.5922534088740274,-2.7808373188229854e-06,0.013121296254107436,-8.7008721419241e-05,0.004120589778272559,0.3649715892146146,8.0,0.491,0.09562748243815644,0.12142956552045014,0.10971428571428572,0.16685714285714287,0.021131163769121934,70.94688221709006,845.703125,159.23659354749265,70.3125,282.3329843686352,1.0,1.0,117.1875,193.34951048069655,116.00970628841787,70467.24244349658,1.6666666666666674,0.1478633742422002,0.0,37594.625175444955,0.0,2.2912194393445735,0.2677488072880712,18.337159862301526,336.2514318156021,-109.41541845539591,39.17684022877386,0.002577718143659378,0.7780014359841977,-0.0002979242966274306,0.0623851127954116,148.59225868416976
51,4,1,0.13104763403987588,0.18603029483921688,0.16122385394600267,0.025993131081202,0.0008810099397784458,0.012082511343329766,0.8061496384673449,0.0011266519210361248,0.02491667448031648,-0.0003999850722605765,0.006864965650053462,0.7940671271240152,8.0,0.48900000000000005,0.1613843159945211,0.2240237918661006,0.14200000000000002,0.2,0.050709481889138486,2.600249157379734,2.5910964912475283,0.07169838851349669,0.0051406589154323135,0.00029047097055234376,2.470678234438407,2.745538717945203,0.0003960266184959686,0.0035776413423911878,4.81533702184007e-05,0.00020873507031153544,0.27486048350679626,2.3666799856241747,2.3898053068822427,0.13489206562429898,0.018195869368390183,0.000806776402388959,2.227281819659413,2.858181127263254,0.0010527424789629472,0.017405832179028382,-0.00023177584210300843,0.004761318314924103,0.6308993076038409,8.0,0.8480000000000001,0.11476330707030447,0.16431028495430766,0.112,0.168,0.018125613448000063,60.31413612565445,994.7916666666666,202.92458061227245,85.9375,438.19698944937994,1.0,1.0,171.875,303.8349450410946,27.621358640099515,26365.294791784458,10.999999999999998,0.22346368715083798,0.0,117780.05277089232,0.0,0.5046704226972893,0.07872734373311338,16.886314927946472,285.1476318457879,-64.03619195541653,57.95249709832404,0.002947862486165782,0.8136394474109069,-0.00038697934873052826,0.07205099405889198,121.98868905374056
52,17,1,0.12917686950489746,0.1614437888193604,0.11676081806118134,0.013633088634316292,-0.00039692335840293036,0.02095147877232506,0.6307971578591678,0.0003426076348626268,0.01700934939726071,-4.321823433902556e-05,0.007962465105143203,0.6098456790868427,7.0,0.5131428571428572,0.14234146954082566,0.11471645995804033,0.16266666666666665,0.23199999999999998,0.025843240574895707,-0.2200976952815894,-0.22049752596463357,0.11202417308231462,0.012549415354776383,0.000374242336850496,-0.43366061738875755,-0.020849732529853005,-0.0002794364052105286,0.004907562012288242,1.3349938727992763e-05,0.00027347779589371085,0.41281088485890455,1.0652013126902926,1.0658053610819935,0.017421780367702408,0.0003035184311804611,-6.243431602513039e-06,1.029291536272254,1.151215942086147,1.814156004405256e-05,0.004965191328792439,-1.948761443428352e-05,0.0028730409538086556,0.12192440581389308,6.0,0.09066666666666667,0.05178211788122766,0.032612663696643916,0.1472,0.1856,0.005619239439235938,62.745098039215684,956.25,159.77278788955272,144.33756729740642,236.6211810750114,0.8333333333333334,0.6666666666666666,70.3125,165.31844008441539,150.54696284161076,78188.5519008078,1.0981187329454503,0.10462439840970915,0.0,43458.26738936677,0.0,0.6101136526305444,-0.0881649659379133,17.586635746851904,309.2897568924492,-90.93097456388642,41.15088343650144,-0.0007033588188036552,1.08869744199029,-1.3781921420678046e-05,0.1152017155165337,132.08185800038785
53,17,1,0.09853883239389602,0.1117406046390753,0.08620017143389545,0.007430469555232965,-0.0005594010320998347,0.0019134682457987058,0.40066636429290514,-0.0014038200358076536,0.00855721478207325,2.253723352104679e-05,0.003826585204867487,0.39875289604710645,5.0,0.1024,0.08178323390256706,0.0694325045647518,0.156,0.21200000000000002,0.015177666624995813,-0.21996032394408907,-0.198253832257094,0.08789021867487178,0.00772469053871678,-0.0004008862710044048,-0.4212216944606598,-0.020849732529853005,0.0006936496232294295,0.0043642222551920715,-3.1203745551402576e-05,0.00022172921380545095,0.4003719619308068,1.0611854823585967,1.0590097789544575,0.019278790714700213,0.0003716717714212111,-0.00023797084956007116,1.0240388927380157,1.0981978585995815,-0.0001761110104735619,0.0024777047546303724,-2.384304054673751e-07,0.0013974291352548299,0.07415896586156578,4.0,0.088,0.028291157624680707,0.018674883770727402,0.13333333333333333,0.17599999999999996,0.00299537867012411,72.25806451612902,830.3571428571429,173.67735414220456,57.527921964516985,328.00096862153725,1.0,1.0,93.75,219.9249201116397,23.86758174456166,16490.45862622049,9.21437799879959,0.34429333792391115,0.0,30235.47080118714,0.0,0.6071262523877455,-0.226428594483545,16.753086501525146,280.665907327584,-90.93097456388642,41.15088343650144,-0.00020562853121258346,0.9925854095102143,0.0001444221552986663,0.10066742014978566,132.08185800038785
54,17,1,0.09679210102430064,0.10176253321377544,0.06294466654279648,0.003962031046183844,-2.4495620865798702e-05,0.0019134682457987058,0.28866880806046025,6.08422764777454e-06,0.008636862476867653,-3.528931499468309e-05,0.0036924839903812626,0.28675533981466156,7.0,0.9348571428571429,0.06574033543800127,0.06964449084209981,0.11599999999999999,0.18,0.01849393170092742,-0.23940879570966894,-0.23934772682306923,0.0772793141909678,0.005972092401826318,-0.0009745340681503198,-0.3774378265915453,-0.040092512808922454,-0.0010882707961119044,0.0023620291952641246,3.658976123660582e-05,0.0001302721485945739,0.33734531378262284,1.045699093590553,1.0463812018218481,0.019828617041844847,0.0003931740537921399,-0.0002473452168223276,1.0159411221966244,1.0981978585995815,-0.0002642563284978884,0.0026445896201059845,4.574246401041019e-07,0.0014051289023412755,0.08225673640295716,4.0,0.822,0.02993442677486713,0.02561547902407979,0.09600000000000002,0.15466666666666665,0.00405171388395848,68.57142857142857,875.0,143.63106492851747,0.0,15.625,0.0,0.0,62.5,0.0,0.0,0.0,1.406480503003033,0.2858776443682104,0.0,0.0,0.06265677628358057,0.07577656831542899,0.018309265992386484,14.612514615118045,213.52558337703846,-75.96103475922213,41.15088343650144,-0.0003318279274632195,0.8601282662638295,-9.502987866497478e-05,0.08803137762175371,117.11191819572358
55,17,1,0.09138615096823573,0.09995023434245302,0.07032105406340106,0.004945050644587775,-0.00016810605073536576,0.0019134682457987058,0.28866880806046025,-1.2846964985943808e-05,0.009541585299076045,-7.660694497034735e-05,0.003820141813254879,0.28675533981466156,8.0,1.181,0.07280080167813677,0.0736024152662882,0.1472,0.19519999999999998,0.022830761239412103,-0.2561445110444041,-0.26695176930752335,0.04915720852418549,0.0024164311498902544,-0.00019637507770072304,-0.3774378265915453,-0.19630574293048306,-0.000538904174035737,0.0028041531678999307,-1.2426960401333623e-05,0.00016032900840891326,0.18113208366106223,1.0335410052642655,1.0391580344228986,0.016308209955069732,0.0002659577119386355,-8.90537901450164e-05,1.0159411221966244,1.0981978585995815,-0.00011910749135600797,0.002761672709525893,-3.592318310700014e-05,0.0013577651291802354,0.08225673640295716,3.0,1.0586666666666666,0.03286711521739871,0.029481201649251904,0.064,0.12,0.004507519977298614,-1.0,-1.0,-1.0,-1.0,-1.0,-1.0,-1.0,-1.0,-1.0,-1.0,-1.0,-1.0,-1.0,-1.0,-1.0,-1.0,-1.0,-1.0,-1.0,-1.0,-1.0,-1.0,-1.0,-1.0,-1.0,-1.0,-1.0
56,17,1,0.08947268659793395,0.1328523879040448,0.12249638328634938,0.015005363918236213,0.0012429422149952184,0.0019134682457987058,0.5201336302890738,0.0007719322091941323,0.01341242510027653,5.83214015529757e-05,0.005137999641488756,0.518220162043275,6.0,2.032,0.09783467059240529,0.13817924267762854,0.17200000000000001,0.236,0.049978444513511563,-0.29067989377145687,-0.3225056315359563,0.1084966731593437,0.011771528086645453,-0.001091967765072531,-0.6373703390712916,-0.20876212539840108,-0.0015751427232009129,0.003450335177419474,-2.6777137631030987e-05,0.00015733128600806283,0.4286082136728905,1.0308265785240236,1.0335242553748516,0.018087577025237372,0.00032716044264389485,3.712897441192361e-05,0.9929888507303548,1.111964557894323,-0.0001989705026763292,0.003593618632021741,7.363451904084222e-06,0.0014971366316943724,0.1189757071639681,3.0,2.026666666666667,0.040128835673219086,0.04907433302169295,0.08533333333333333,0.144,0.007952859076687711,67.36842105263158,890.625,74.11588266019639,0.0,15.625,0.0,0.0,23.4375,0.0,0.0,0.0,0.9154234558223511,0.2808199943836001,0.0,0.0,0.03229320912156064,-0.4452340901611551,-0.09374246344987273,12.793410660750292,163.6713563345992,-47.857618742225476,45.38964733622361,0.005161522952010305,0.7654606800370565,0.00031033123288942943,0.07753574327631134,93.24726607844909
57,17,1,0.1742000627175328,0.20514914840072168,0.15862992076885482,0.025163451763133154,0.001301573097915548,0.012461962055730615,0.7745770567115811,-0.00010902752851675106,0.021280781549710477,-2.131046428855762e-05,0.008713984207053592,0.7621150946558505,8.0,10800.725,0.15467149947187483,0.17234723539295482,0.16,0.22080000000000002,0.05428224970068639,-0.36247807178464275,-0.3968755905778712,0.14008774354202144,0.019624575890695172,-0.0012595062420283274,-0.6703493850736009,-0.20876212539840108,-5.732884405627893e-05,0.005500004535023693,3.990791497106034e-05,0.00025068767368050844,0.46158725967519976,1.0279463512492857,1.033021130442545,0.023625668416973188,0.0005581722081487643,1.0116975123997734e-05,0.9929888507303548,1.132867279544316,-4.210675005338199e-05,0.005798483434461352,5.435267080986193e-06,0.002818336522816572,0.13987842881396118,5.0,1.2736,0.05873382359830455,0.05860043214561803,0.08320000000000001,0.1344,0.008461854268086851,69.06474820143885,868.75,174.44107171191078,0.0,15.625,0.0,0.0,171.875,0.0,0.0,0.0,1.841910253050021,0.23030861354214646,0.0,24037.753930735144,0.0,0.003960355144748483,0.09163901459027851,14.435176443701716,208.37431896080093,-47.857618742225476,45.38964733622361,-6.895383801980848e-05,0.8480132475560004,-7.528660656261285e-05,0.08785863935363217,93.24726607844909
58,17,1,0.12826786865174641,0.18289151720140956,0.17221951391534887,0.029659560973239043,-0.00021101123560979306,0.009171724640010172,0.7745770567115811,-0.0002326221415079067,0.02076738522956532,3.6620895468813044e-05,0.00860593565012933,0.7654053320715709,7.0,0.9302857142857144,0.16741481443603076,0.17303970330086968,0.15360000000000001,0.20800000000000002,0.04894544137762503,-0.35147683269620755,-0.38887690252970586,0.1450391309580843,0.021036349509076326,-0.00036719608577884364,-0.6703493850736009,-0.20876212539840108,-0.00028672132746668775,0.00539409381591897,-2.2077354206625523e-05,0.00027618351045523455,0.46158725967519976,1.0261048129585757,1.0294729945675323,0.02559147558684346,0.000654923622712005,-0.00014372215756731113,0.9880813089667719,1.132867279544316,-0.0001302981490909042,0.005668914294824881,1.0522748833680674e-05,0.0027593004575239013,0.14478597057754405,4.0,0.8420000000000001,0.06639032902230424,0.0630725338957488,0.088,0.132,0.009111684929885143,70.32967032967034,853.125,226.34148702789773,0.0,250.0,1.0,1.0,250.0,0.0,0.0,0.0,4.887010352597665,0.2345215759849906,0.0,84062.3253316957,0.0,0.3104354406728333,0.08218240632152023,14.181252329369471,201.10791762924705,-47.857618742225476,45.38964733622361,0.0003593878302333792,0.81913158020425,2.302785168799056e-05,0.08241437361755963,93.24726607844909
59,17,1,0.05832246905880776,0.1704869134767086,0.1774701556143699,0.03149565613378867,-0.0017429786819076548,0.0027269768269301714,0.7745770567115811,-0.0002442556344681428,0.02013210491128556,5.085002546013823e-05,0.008427436046272342,0.7718500798846509,6.0,0.5880000000000001,0.18489539194013985,0.17775647253644467,0.208,0.26,0.05191614012864736,-0.36300566417567137,-0.4107295636235259,0.12718032414291774,0.016174834849097625,0.0010076621282269248,-0.6703493850736009,-0.243655000419072,0.00010602860667807031,0.0050950286975843615,2.3704036464207144e-05,0.00025758136614337885,0.42669438465452886,1.0159424439660507,1.0209717174173067,0.025187425738252243,0.0006344064153199716,-0.00018079818406694409,0.9880813089667719,1.132867279544316,-3.4074533074898716e-05,0.005512821055034419,2.844216724148645e-05,0.0027183943922802407,0.14478597057754405,4.0,0.8420000000000001,0.06639032902230424,0.0630725338957488,0.088,0.132,0.009111684929885143,84.70588235294117,708.3333333333334,186.1933638720779,159.51450865743286,254.19654878984227,1.0,1.0,62.5,141.7776832168354,66.49554861876933,29617.631234859327,2.1321379575296353,0.47095761381475665,0.0,18305.825945849905,0.0,0.5466118583007168,0.04553510100491666,12.867234493297097,165.5657235054946,-46.25261375617175,40.37322021283019,0.012656083198593139,0.7508751275311394,-0.0002645633443392485,0.07704046919201682,86.62583396900195
60,17,1,0.03239889100944984,0.0996703688657395,0.16102668548085244,0.025929593436949373,-0.0016070158185460014,6.93580051044103e-05,0.7745770567115811,-0.0012155441164041479,0.016737999952275054,-3.505109835084167e-05,0.0071490424107385625,0.7745076987064766,6.0,14399.466666666667,0.13427382322811834,0.15498720033260682,0.208,0.264,0.027316545766612403,-0.32017969009601327,-0.3633634412825631,0.12226527352997037,0.014948797111358473,0.001211018587498809,-0.6703493850736009,-0.243655000419072,0.0015060316434922492,0.0040917073191391404,1.7321432259581487e-05,0.00025365141616454095,0.42669438465452886,1.0117608986853335,1.0152255637917735,0.018841489413389933,0.00035500172331488495,-9.787239942546463e-05,0.9880813089667719,1.132867279544316,6.903947732977677e-05,0.004640194785960674,-6.937044004682221e-06,0.0024255263550675655,0.14478597057754405,1.0,0.128,0.1608870526780528,0.1327142502571157,0.096,0.128,0.01698742403291081,91.1392405063291,658.3333333333334,186.3564665872609,159.51450865743286,254.19654878984227,1.0,1.0,78.125,141.7776832168354,66.49554861876933,29617.631234859327,2.1321379575296353,0.5066882853668423,0.0,107766.86654315746,0.0,0.8107549629722044,0.09363935680161442,9.356343149445205,87.54115713017022,-40.951875000807824,40.37322021283019,-0.0024431019767897034,0.5237676833547144,-0.0001041362687162561,0.0576593641317257,81.32509521363801
61,17,1,0.027841773921463045,0.027137762159684845,0.019902049125921133,0.0003960915594105782,-3.283711907174395e-05,5.455658834188512e-05,0.07340950398739202,7.768257775879798e-05,0.0031398040361224106,1.9723263050834693e-05,0.0015175033889748492,0.07335494739905013,7.0,0.5108571428571429,0.0383300161213062,0.029246201993718902,0.19519999999999998,0.2464,0.010153255047417733,-0.301996282379521,-0.30732626390321743,0.03363111396999012,0.0011310518268624645,3.547021509663103e-05,-0.36831030938553005,-0.243655000419072,-0.0002570870548848482,0.0016540281237846992,-1.9918699695806233e-05,0.00014293509633026032,0.12465530896645804,1.0117835095791126,1.0111424311544186,0.007550695543974083,5.701300319779008e-05,5.412593808146716e-07,0.9880813089667719,1.0327125230140188,-4.419280186259191e-05,0.0011312783879408412,7.372884943653938e-07,0.0005533011122040968,0.0446312140472469,1.0,0.128,0.014263171631610838,0.010223548571948404,0.064,0.096,0.000981460662907047,88.98395721925134,674.2788461538462,207.90837452287863,199.60134829751902,442.1488499009694,1.0,1.0,78.125,303.6214322492629,87.47732686155737,83440.67345651762,3.4708586000779116,0.5708414202534535,0.0,135205.96606092746,0.0,0.7934229127358752,0.020362822061361772,7.548499457700576,56.97984406290589,-28.707138736155013,27.135338483870424,0.0013348630204284167,0.4692781229746297,0.00010287710018656408,0.051026439761817186,55.84247722002544
62,17,1,0.03836163752962033,0.07078790871057444,0.12988008529678716,0.016868836556700708,0.0009706164211659554,5.455658834188512e-05,0.7468619322073732,0.0018901791989665792,0.017250511253905122,-0.00027255124641443194,0.007162136387124782,0.7468073756190313,6.0,1.0746666666666667,0.14301938790777735,0.1292395263112993,0.136,0.188,0.007770189525256883,-0.3143910303334796,-0.32081300521869616,0.04326442780377583,0.0018718107131881312,-0.00017324521158836094,-0.5133858659386461,-0.27695484864577,-0.0006239490323260606,0.002612450910745525,-3.971796883225163e-05,0.00011730897645686692,0.23643101729287608,1.0122927692555788,1.0185980482482764,0.024044811269102056,0.0005781529489667372,0.00019570135268366328,0.9950351149005282,1.1745674502088914,0.00032136195039719556,0.004848545153993562,-4.788073966820195e-05,0.002381408397065198,0.1795323353083632,4.0,0.838,0.04821564737866413,0.04532392914619854,0.07466666666666667,0.11199999999999999,0.00691343122058027,76.58119658119658,783.4821428571429,198.94892817104633,0.0,46.875,1.0,0.0,140.625,0.0,0.0,0.0,2.3863452236470577,0.18244845831052728,0.0,166996.04078608783,0.0,1.0104223540398287,0.16010231402166658,8.789148453708204,77.2491305413213,-33.619438381813005,26.27691772621864,-0.004750127437336917,0.545124888115413,0.00014447877716386936,0.059908721721062326,59.89635610803165
63,17,1,0.05891745572953948,0.15301062017861777,0.18695227477496887,0.034951153043535466,0.001976110750054102,5.455658834188512e-05,0.7468619322073732,0.000865201837246965,0.018424462721895678,-4.522438963783853e-05,0.007850986349844002,0.7468073756190313,7.0,0.9234285714285715,0.1447480389981009,0.12477387387198309,0.12160000000000001,0.15999999999999998,0.031221017658226692,-0.32027043077016126,-0.3800080285309709,0.12316221235004175,0.015168930550956777,-0.0014541818925884941,-0.6492848685867876,-0.27695484864577,-0.0004918298312301798,0.004167237073899957,2.6115362812609345e-05,0.00021897245393029722,0.37233001994101755,1.0146303433576418,1.024362591494701,0.025105416183364915,0.0006302819217399611,0.00013032400275071705,1.0017883208513871,1.1745674502088914,0.00012018014329118476,0.005165526930697398,-2.3244813664679426e-05,0.0025707718480867583,0.17277912935750428,5.0,0.6896,0.04408919566036804,0.040339838638285386,0.068,0.104,0.005593142947567857,78.19004524886878,767.3611111111111,178.6761156981751,63.78879538497859,140.3353498469529,1.0,0.6666666666666666,140.625,98.95833333333333,28.998772723073046,9015.334873169795,3.4125007385087214,0.28977108084613157,0.0,57736.51350315504,0.0,0.9659041980990533,-0.08934915638323687,9.447890017432359,89.262625781498,-33.619438381813005,29.05102774744083,-0.004540848263101544,0.6020733522864427,0.00021532869019718256,0.06739576446117823,62.67046612925384
64,17,1,0.07027337807855379,0.16174103392089087,0.18256646492439577,0.03333051411499063,0.00030757358029186155,5.455658834188512e-05,0.7468619322073732,2.0927928191929087e-05,0.018696492990932265,-5.980417041680173e-07,0.007875669875449975,0.7468073756190313,8.0,0.8160000000000001,0.1422834318584793,0.11731476919641884,0.11466666666666668,0.152,0.02723273406258167,-0.32901751117226913,-0.389439252078634,0.11785098140350551,0.013888853817769402,-0.00039823972409391774,-0.6492848685867876,-0.27854108586569315,-8.957149736140621e-05,0.004445593412063023,-1.5483522519870127e-06,0.00023269702939668764,0.37074378272109443,1.0145372818258642,1.0241251464368133,0.025311735565083086,0.0006406839573166919,-2.2364415028255027e-05,1.0017883208513871,1.1745674502088914,-1.5508780944180808e-05,0.005217394477799626,-3.1611569996585485e-06,0.002608173573932882,0.17277912935750428,6.0,0.5986666666666667,0.04575954875033483,0.03813964294466754,0.0864,0.1216,0.005516639073954893,74.4186046511628,806.25,129.26323674966523,79.1919333309113,164.8048680447577,1.0,0.75,117.1875,104.0485984520875,138.74062996232843,45351.30299913093,0.7499504541700532,0.24823135161970955,0.0,55145.77745337307,0.0,0.2986190913130206,0.008339873727895833,9.901749670452961,98.04464653631531,-33.619438381813005,29.05102774744083,-0.001452219637233848,0.6386021330017723,-0.00011202809874770028,0.07248090389749984,62.67046612925384
65,10,1,0.14787588813876718,0.2726322183370586,0.27646400184992165,0.07643234431887348,0.0012023855475323823,0.00917223025548981,0.9354617270919748,-0.0006574430830074711,0.030013400076955812,-3.487987666042247e-05,0.008067882419072437,0.926289496836485,5.0,0.6896000000000001,0.17340205988196028,0.2927081348827354,0.1632,0.21760000000000002,0.08571608639499984,1.5855495499246497,1.7521186134464726,0.3978307677202558,0.15826931974488812,0.005279973779439914,1.3246704765718924,2.479490961220294,0.0047020586861364465,0.006103377599174495,-2.0813875648871086e-05,0.0003099727929271359,1.1548204846484018,2.350571719536461,2.5339912997441862,0.4187527565664813,0.17535387113202677,0.004969579245123857,2.047148390462855,3.4267184511171824,0.0031180678173786873,0.02381645749302376,-3.019195856404968e-05,0.006153473849083393,1.3795700606543275,6.0,1.5533333333333335,0.1351873875330707,0.25830730320524814,0.12799999999999997,0.19519999999999998,0.05923510163900616,104.2962962962963,575.2840909090909,92.03405513025605,99.31498303573095,112.24873813079826,0.4782608695652174,0.21739130434782608,31.25,78.13976703538374,97.77417855912242,24001.92977441645,0.7991861265102209,0.36900369003690037,1007.1068412307893,13158.47192293606,0.07653676256095797,0.9986958288200566,0.17645628123050844,18.193212695537063,330.99298818505093,-93.57036185865604,61.30135180896015,-0.004080275749060791,0.861967334479579,0.0004063666588353556,0.07860394519479266,154.87171366761618
66,10,1,0.20286700884951045,0.2899005224227345,0.264855136818159,0.07014824349896571,-0.0005188124174225652,0.01492995416573319,0.9354617270919748,-0.002306593606401051,0.025833691012372987,-0.0004395453099060989,0.007541152267203727,0.9205317729262417,6.0,1.0746666666666667,0.10273663395657164,0.16285766474186547,0.15360000000000001,0.2112,0.050015295901833526,2.1037313633048615,2.012999904080117,0.4031595871844256,0.1625376527387165,0.005365113018830799,1.4272080116458792,2.479490961220294,0.004357637750223432,0.006443390739736049,5.283805201143632e-07,0.0003144395572385985,1.052282949574415,2.878436651396128,2.7473598831858395,0.36079442171430937,0.13017261474016292,0.0037174454016370836,2.1670524767984696,3.4267184511171824,0.0015346706530186076,0.020681455748606428,-0.00036972993006864445,0.005748264319918823,1.2596659743187129,7.0,1.352,0.08476704958285884,0.16077573847415896,0.11199999999999999,0.17919999999999997,0.025445952792515648,102.26364846870838,586.71875,86.50028788788798,24.978289183920413,36.084391824351606,0.5,0.16666666666666666,31.25,25.515518153991437,23.581732130566177,1890.2966586862635,1.0820035616009192,0.3411222923418045,0.0,10064.277845817576,0.0,2.435662509988004,0.3196601696948334,22.235444087646197,494.41497377484023,-93.57036185865604,61.30135180896015,0.011873645071087355,1.0363496955101514,0.00017658997200942333,0.09286653715612342,154.87171366761618
67,10,1,0.21466846921700497,0.2759885384992543,0.23811042473170355,0.056696574365912265,-0.001150746153507628,0.02403521540179667,0.9354617270919748,-3.411724838974905e-06,0.023419675753172046,-3.1358145613630378e-06,0.007047620476537722,0.9114265116901782,7.0,1.3451428571428572,0.09819027322257931,0.17715291631130956,0.12159999999999997,0.1728,0.04654251343641605,2.412336197673162,2.2766851156823305,0.36169143052104663,0.1308206909123611,0.00462355359358962,1.523856881495882,2.6875408738631545,0.004710714623821691,0.006090640716244469,1.4762606678712931e-05,0.0002927957949085004,1.1636839923672726,2.992585305585136,2.9387639767432043,0.2979509710756445,0.08877478116491955,0.0026623701172608515,2.1670524767984696,3.4267184511171824,0.0036191858892033347,0.019119732974777245,1.8224992753981354e-05,0.00537769311625377,1.2596659743187129,8.0,1.558,0.08565466358620855,0.17821785480972085,0.1024,0.16959999999999997,0.02589939277785344,75.54098360655738,794.2708333333334,156.61848910161348,0.0,78.125,1.0,1.0,132.8125,0.0,0.0,0.0,-1.915257827373409,0.20995171110644553,0.0,4669.6729340815555,0.0,3.6599508428790593,-0.06668387599044028,23.012080740924095,529.5558600268097,-93.57036185865604,61.30135180896015,-0.00043296903013283206,1.125750349873072,4.0006927483960594e-05,0.10457901828068338,154.87171366761618
68,10,1,0.11141443053909941,0.19961642428152465,0.22127260308782265,0.048961564877261096,-0.0019074498995587952,0.005759139675362413,0.9354617270919748,-0.003176085619696835,0.01581625307808662,-0.00015953169825046916,0.004419777091865393,0.9297025874166124,8.0,1.185,0.059187271956853464,0.10049766570698182,0.08533333333333333,0.13599999999999998,0.009718844173515359,2.479328106189846,2.506830254426822,0.13114076221680937,0.01719789951480574,0.0015574616343317013,2.1116461633191657,2.6875408738631545,0.0017956677520215487,0.004700659025827435,-7.913250617935658e-05,0.00017549067740969487,0.5758947105439889,3.036472880471926,3.0567015291349775,0.12761305798579414,0.016285092568485655,-0.0002685153775728982,2.8550293598938743,3.4267184511171824,-0.0010484028634907216,0.012061407095372786,-0.00018513091197377475,0.003401438870818546,0.5716890912233081,8.0,10800.368000000002,0.050602712218520196,0.14177393183144177,0.112,14399.546666666669,6935.135198519222,-1.0,-1.0,-1.0,-1.0,-1.0,-1.0,-1.0,-1.0,-1.0,-1.0,-1.0,-1.0,-1.0,-1.0,-1.0,-1.0,-1.0,-1.0,-1.0,-1.0,-1.0,-1.0,-1.0,-1.0,-1.0,-1.0,-1.0
69,10,1,0.09203925040338767,0.13177304412681243,0.10902683594734032,0.01188685095668826,-0.0004033077722485879,0.003072146531473759,0.4727315834201085,0.0017038027909495475,0.01426160600867275,7.461361959235565e-05,0.004165814080803677,0.46965943688863476,7.0,1.7622857142857142,0.06989354952867616,0.1337740544757158,0.13119999999999998,0.19839999999999997,0.023176394900683656,2.534808337150641,2.5388677495225886,0.0976674943269561,0.009538939448106002,0.0005127369832845373,2.3843925043700755,2.6875408738631545,0.0006933269876166086,0.0034656090835519177,4.408693512072034e-05,0.00014395955607597203,0.303148369493079,3.0055875085905788,3.029196007344422,0.1032340482582089,0.010657268719778202,8.339668041710719e-05,2.8550293598938743,3.3491708679911767,0.0018186718347618905,0.01181358852839766,8.872042069338013e-05,0.003177246269301812,0.4941415080973024,7.0,0.9600000000000001,0.05492559552899756,0.10713308834430599,0.128,0.19519999999999998,0.017297850872818835,88.16326530612245,680.5555555555555,125.45730392458101,27.89620479899551,51.22998847110938,0.5,0.5,31.25,30.633568635465082,28.571755543608965,2749.694158024068,1.0721626323839002,0.32679738562091504,0.0,21213.390800069545,0.0,0.08252544676785757,0.15871157516019424,15.556169366214398,241.99440535034728,-52.93285012833344,50.43547154956897,0.0019322104137810732,0.78535748172083,-0.0003859161065390741,0.07599616430731147,103.36832167790241
70,10,1,0.08335245843106248,0.13855266215265835,0.1421035554195643,0.02019342046288118,8.677900563835337e-06,0.003072146531473759,0.5721845490067091,-0.00022452125151829438,0.01495947396623884,0.00010082606521867042,0.004458570886000047,0.5691124024752353,6.0,1.072,0.06746788824568183,0.11513892177193498,0.11840000000000002,0.176,0.018473816141261912,2.6195327273794935,2.6058749294135324,0.0795170999199139,0.0063229691796735715,0.00017131953207721046,2.4695994881007133,2.7300951025939315,0.0005419065315653411,0.003869473625488672,-3.414176357712008e-05,0.00018322784687366424,0.26049561449321823,3.0687472260265714,3.0856971104259556,0.13411880517501856,0.017987853901574587,0.00014037454735737367,2.907115370202475,3.4730203616392132,0.0002828231855150409,0.01246687820177194,4.8147984258561e-05,0.0033783896691241947,0.5659049914367382,6.0,1.0906666666666667,0.056668178083609654,0.12109163897901783,0.11520000000000001,0.1888,0.02166034627546755,88.71287128712872,676.3392857142857,140.92584033629106,52.34310219333797,85.58164961018221,0.6666666666666666,0.6666666666666666,54.6875,44.95488672300017,198.46415503393382,28029.0810791059,0.22651388466251596,0.21134946634259746,0.0,29366.498620130886,0.0,-0.058496567109445154,-0.0770840850400622,9.877956769302234,97.57402993620381,-45.55612844156397,33.641271805663905,-0.0068808358079395495,0.5963853011436309,-0.0001152524540905949,0.06205415966777966,79.19740024722788
71,10,1,0.0668152923361564,0.12200804868707367,0.13939360620253063,0.019430577450146185,0.0004373429379015798,0.003072146531473759,0.5721845490067091,-3.822551306498547e-05,0.015947888387614812,3.150098737647576e-05,0.004607353208452488,0.5691124024752353,6.0,0.6120000000000001,0.09711674715595749,0.12617865692236388,0.1504,0.22079999999999997,0.03408421306132449,2.6064519753377517,2.6027968740530607,0.07169740288101553,0.005140517579882654,0.00013200151414319324,2.4695994881007133,2.7300951025939315,-0.0002936692354676381,0.00334687327995178,2.1339353875946914e-06,0.0001856676386541708,0.26049561449321823,3.0302653517750913,3.0707422802293385,0.13199431925311073,0.01742250031509212,0.00043616921351855383,2.907115370202475,3.4730203616392132,-0.00026218337278285285,0.013044046310654535,2.6205276469474607e-05,0.003531770693942125,0.5659049914367382,5.0,0.728,0.08424385389809039,0.13462268675311292,0.1376,0.22079999999999997,0.031897321031691246,90.92896174863387,659.8557692307693,140.71229210487718,86.40968761998468,133.3475741092928,0.6666666666666666,0.6666666666666666,78.125,92.8231089615709,26.874697188216523,7836.994871000263,3.4539220409251756,0.11665888940737283,0.0,112807.20635433262,0.0,-0.04695452002205253,0.1521761343421078,8.493455256594727,72.13878219577659,-45.55612844156397,41.83776667920864,0.011717117513003136,0.49681399923401726,0.00043394310419469096,0.045102642682780546,87.39389512077261
72,10,1,0.0625438117664028,0.12215498154140213,0.13903145684433735,0.019329745992258836,-0.0005643514349183383,0.003072146531473759,0.5721845490067091,0.00010317192450145761,0.015905106867096952,-1.2707030914899225e-05,0.0046209666553573255,0.5691124024752353,6.0,1.0853333333333335,0.0993108729051348,0.12482342919684418,0.16,0.22399999999999998,0.04005555105404666,2.597572852534827,2.595381946791478,0.0675382612265219,0.0045614167295019116,0.0002654545464946229,2.4695994881007133,2.7300951025939315,0.00010678167707743324,0.003128430140908856,8.316031816887893e-06,0.00018392210619405484,0.26049561449321823,3.017009603089396,3.065195508206229,0.13210483296747833,0.01745168689336535,-0.00022789791152705297,2.907115370202475,3.4730203616392132,0.00014581911196665429,0.012954597648739278,-1.1362944183417508e-06,0.003539244196164418,0.5659049914367382,5.0,0.7184000000000001,0.08621572498622747,0.1339139382094273,0.1376,0.2144,0.03167322149646751,83.70572207084469,716.796875,159.81050714317684,58.796524131958684,113.32165227792966,0.8,0.8,78.125,77.62338967733888,194.32877263802183,47389.22257441435,0.3994436265077882,0.17448961786773687,0.0,132318.60654461116,0.0,-0.2742953038502225,-0.029980117143290297,10.725493621747603,115.0362134301485,-45.55612844156397,49.732618743821746,0.0003216357032671572,0.5915879174563913,6.961887096114868e-05,0.05359042677774535,95.28874718538572
73,10,1,0.03536050382439415,0.09458437560632409,0.13488384992837277,0.018193652971499785,-0.0011389683855778595,0.003734120106127635,0.5721845490067091,-0.001972574695192536,0.012580134569732901,3.8987910976081985e-06,0.003921212300372826,0.5684504289005815,6.0,0.6066666666666667,0.08596558070027528,0.09906903221749952,0.1312,0.1888,0.022144786643471893,2.5964165941261785,2.5975350509512825,0.06287217367078085,0.003952910222088829,-0.0008119892433550633,2.4857483318714624,2.7300951025939315,-0.0005548797782443725,0.0023388227028292726,-3.316917723474033e-05,0.0001461296769036685,0.24434677072246913,3.002449990880978,3.045713077524263,0.13514441403537886,0.018264012644965903,-0.0014961074923413972,2.891073504332407,3.4730203616392132,-0.0019435735903689264,0.009774540609305766,-2.6328678472730776e-05,0.0030282135260376077,0.5819468573068063,4.0,21599.176,0.08965184331781995,0.22517237376954313,0.16399999999999998,21599.28,12440.571916710895,89.5800933125972,669.7916666666666,180.13907628706093,72.67330623258798,154.34101708091544,1.0,0.7142857142857143,125.0,107.745699876314,199.17419594825193,67419.09086466611,0.5409621430293498,0.09958175662218682,0.0,15005.277941805234,0.0,-0.025987037063881183,-0.1449271660432677,10.86711808567036,118.09425548790381,-45.55612844156397,49.732618743821746,-0.002521157935040959,0.5911284849472375,0.00013469885998056475,0.05340491870868494,95.28874718538572
74,10,1,0.040614559213765555,0.0684819150270381,0.07641702186473714,0.005839561230675714,-0.00015715999143572744,0.003433809153022941,0.3879832845387984,-0.0001422060946178635,0.011539342780992643,-7.453260019901723e-05,0.0037201763799042512,0.38454947538577544,6.0,1.08,0.08620871620876092,0.10596602956896052,0.128,0.18,0.020892205777940865,2.56045389277354,2.543148600602822,0.058724522979394234,0.003448569599157401,-0.0007919783690743406,2.446368882652573,2.6162552177582357,-0.0006366111805800203,0.0008216015403073508,1.3649606560824091e-05,6.26076855479529e-05,0.16988633510566276,2.9749069189661985,2.9839794787213245,0.07855512840352724,0.006170908198494653,-0.0007275901351136253,2.8716141195569356,3.2824191452066,-0.0006163172754546753,0.00909924784026709,-5.391218915445824e-05,0.0029317594509906866,0.4108050256496645,3.0,1.0906666666666667,0.10781137344339638,0.14636501150277695,0.144,0.20799999999999996,0.034252577946182354,75.42857142857143,795.4545454545455,204.53559003991262,66.29126073623883,127.89613706050703,0.6666666666666666,0.6666666666666666,187.5,90.361206108841,221.522607480591,62885.41720241706,0.4079096356644236,0.4574042309891366,0.0,165571.94282023894,0.0,-0.060345620722745394,-0.015266276836086707,16.102954588787682,259.30514648855825,-90.12546318121078,84.4320389687512,0.0007723785071889727,0.7814785800533983,2.6232322624238572e-05,0.07150921186731787,174.55750214996198
75,10,1,0.029324207076742582,0.054851736213468866,0.05250286688903504,0.002756551031567732,0.0002848135765683845,0.003433809153022941,0.21527648766870966,0.00011958485962146892,0.0077149238686462515,4.0823169677537556e-05,0.0029538005874481074,0.21184267851568672,6.0,1.0693333333333335,0.07329043383104968,0.07940286451335324,0.11200000000000002,0.156,0.005546560831075353,2.4941710339450935,2.513128077751943,0.05305605189503842,0.00281494464268901,-0.0006527020562731514,2.446368882652573,2.6154402615668477,-0.000546903864860245,0.0008821338005596523,-3.7917329185686393e-06,4.3432641882530736e-05,0.16907137891427482,2.9526613495702065,2.9505012079558783,0.04996384831440437,0.002496386138384808,-0.0002825523631620068,2.8668299937458834,3.0540923616383866,-0.00032327038173046995,0.006324596311926806,3.328247690999181e-05,0.0023526430317614717,0.18726236789250317,5.0,1.2704,0.05725914135210104,0.07373252936038943,0.12266666666666666,0.18133333333333335,0.018349168527700497,91.42857142857143,656.25,149.48137027577653,122.32414853188061,151.56323219129607,0.8181818181818182,0.36363636363636365,62.5,99.75596514817862,135.91901947620096,42596.01589004295,0.7339367627327948,0.07260582298700356,26041.35212858956,23100.494075945127,1.127307149491092,0.06209271698123595,-0.01568936216519082,15.318379753837629,234.6527582827826,-90.12546318121078,84.4320389687512,-0.009896183748861075,0.7056333876674261,-0.00034421567199479177,0.06597226045660885,174.55750214996198
76,10,1,0.06044807719634668,0.07285816769386194,0.060451303279325345,0.003654360068168971,0.00046089886919506716,0.003433809153022941,0.21527648766870966,-8.392791376402855e-06,0.009330556555584233,9.383648783770375e-07,0.0034088091833558713,0.21184267851568672,8.0,0.46900000000000003,0.08055356806697586,0.08481650782722158,0.112,0.14933333333333332,0.0095656245475985,2.475319043336911,2.478579130437356,0.029443264129325956,0.0008669058025892526,-0.0002978559151866995,2.43960576940875,2.559743323891682,-0.00039045574174047525,0.0010702114124297043,1.7773149984328753e-05,6.0507765927250804e-05,0.12013755448293217,2.9311969524470904,2.9377523181616483,0.04243951815962474,0.0018011127016211183,0.00012516088778987403,2.8668299937458834,3.048778955582809,-0.0002972538923957935,0.007419547963702274,2.3233290149125378e-05,0.0026594179814098387,0.18194896183692544,7.0,0.9417142857142858,0.06125308110466955,0.07562802143483058,0.11839999999999999,0.1728,0.01649778014205908,94.90494296577947,632.2115384615385,73.70052748440332,25.911131174651562,46.875,0.5,0.25,62.5,33.14563036811941,95.68319307746789,9963.49748419675,0.34641016151377546,0.121758188238159,0.0,12900.273075521545,0.0,0.37422885574630704,0.06242056073945421,13.780664523514417,189.90671470964887,-90.12546318121078,84.4320389687512,-0.0004369941428307785,0.6276403863551491,-7.818345322995844e-05,0.05971641428162715,174.55750214996198
77,10,1,0.10966680445429713,0.10426262903234923,0.060660584345447834,0.0036797064931311904,0.0002749272032563053,0.003433809153022941,0.2766468463973776,0.0003853004112146363,0.011948280100123752,-4.280036896019073e-05,0.0042000594452925805,0.27321303724435464,10.0,0.6880000000000001,0.09014531103338691,0.10252830081683144,0.10742857142857143,0.14857142857142858,0.015892068142321532,2.4710975878075043,2.475863670509161,0.033244068657956254,0.0011051681009349092,0.0001443907512862129,2.3794255269361066,2.558454368399741,-0.00046176014092508266,0.002828673683937348,-3.7494530716918516e-05,0.00015893155704505807,0.1790288414636345,2.9621237714267847,2.9599703283173424,0.05781374483581655,0.0033424290919409046,0.00032584591192185374,2.8668299937458834,3.114859645417274,-8.765809916106797e-05,0.009820428810114381,-0.00011122028473288572,0.003276057029636111,0.24802965167139046,9.0,1.0782222222222222,0.06986203428960912,0.08790804643583118,0.11466666666666665,0.168,0.014844523934434523,92.84974093264249,646.2053571428571,66.7126970262431,25.0,42.50459533979826,0.4,0.2,46.875,29.973947020704497,85.69568250501304,8069.613790836688,0.34977196218667234,0.11061946902654866,0.0,12135.734627320706,0.0,0.17438660396074557,0.6268874893008304,14.287338404635724,204.12803868857887,-90.12546318121078,84.4320389687512,0.017635828149263174,0.6366956767221297,2.484567252320258e-05,0.060191032919163084,174.55750214996198
78,11,1,0.29262882660629536,0.29425806454480535,0.09226545337513407,0.00851291388651904,-0.00019972362756032742,0.11153920582040547,0.5699416253842249,0.0008947465112257787,0.020888846439762757,-0.00019569281841030193,0.009080590793920068,0.45840241956381944,10.0,0.6848000000000001,0.12483918789205328,0.1476217163879472,0.12571428571428572,0.19428571428571426,0.035998862865553226,-0.4052726796197506,-0.4245536159123191,0.0924421582902988,0.00854555262936866,0.00044470453009584073,-0.6446755913090483,-0.2491546576884549,-0.0004136800895285129,0.005365302402826624,5.5994576111529325e-05,0.00025024871395125966,0.3955209336205934,3.089117165888547,3.0734149314813566,0.06991116828017764,0.004887571450299316,0.0002100931196977843,2.8416560780029143,3.193557244982343,0.00044829808364452904,0.01905075197910587,-9.183738594684318e-05,0.008443239822055052,0.35190116697942875,9.0,0.760888888888889,0.1189868122074292,0.1336435130607637,0.1376,0.21119999999999997,0.02634676313462241,55.49132947976879,1081.25,209.72452169453146,218.75,434.1388746703064,1.0,1.0,156.25,154.67960838455724,88.38834764831847,42951.46206079796,1.7499999999999991,0.1850481125092524,0.0,47024.03016292449,0.0,0.5052933712809722,0.12419496360677056,11.428384147093961,130.60796421354857,-50.31811728250455,33.68011473558854,-0.0006401612708836264,0.6058761957209863,8.013041605692445e-06,0.0517884357564436,83.99823201809309
79,11,1,0.2779163799127057,0.26650559805587604,0.0690749255350456,0.004771345337672094,-0.0001078148272110664,0.11153920582040547,0.4477179645022764,-0.000363706974535957,0.01587142020385189,1.7668137752794524e-05,0.007125797648671332,0.33617875868187097,9.0,0.4275555555555556,0.10819016488554746,0.11122227784388874,0.13333333333333333,0.18666666666666665,0.02303159498734815,-0.3744771027016358,-0.37585907104310745,0.05700766019490125,0.0032498733208973286,0.00026249294807960833,-0.5544375733044675,-0.2762019180740214,0.0004100639738354137,0.0038825149230066525,-7.229230490374509e-05,0.00015734788002115695,0.27823565523044613,3.1007378126383416,3.091328673068902,0.05654698292716717,0.0031975612781653356,0.00013222642419002319,2.9334150681829563,3.193557244982343,3.7339369529690304e-05,0.015568818911075005,-4.959973798451117e-05,0.007889879831538747,0.2601421767993868,11.0,0.6414545454545455,0.0955290018152386,0.10787702434362144,0.12571428571428572,0.18742857142857144,0.022207784666096995,56.00000000000001,1071.4285714285713,179.68403390623308,257.8125,448.6579379800384,1.0,1.0,109.375,182.30096702465679,71.8155324642587,41129.85987518373,2.5384615384615397,0.26680896478121663,0.0,194005.85691549888,0.0,0.5588669558110154,-0.10607648376310146,10.758670341556549,115.74898751828849,-50.31811728250455,33.68011473558854,-0.00015181512111077586,0.5680253645037192,0.00016975269942811822,0.04877398523937114,83.99823201809309
80,11,1,0.2886068755123919,0.2799030954481647,0.07542755249268539,0.005689315675036811,0.00022551521403900603,0.1227747489954908,0.5006339164487823,-0.0005358699040550058,0.018147192114976358,-4.993014110935163e-05,0.009273556956456968,0.3778591674532915,11.0,7854.553454545455,0.14442703811375066,0.1170770041989398,0.11911111111111111,9599.743999999999,1637.0435822897352,-0.4024872713267863,-0.40786598691852766,0.08083577648069601,0.006534422759237046,-0.00043558179580914654,-0.5838665800783744,-0.2762019180740214,-8.3728634795208e-05,0.004194582780582272,3.370965146896956e-05,0.00021755675561083783,0.30766466200435305,3.0914197772334964,3.0754339141399627,0.061005799487588774,0.003721707571119887,-0.00018225654846214958,2.8982533013439764,3.193557244982343,-0.0005295374496882193,0.01730795158084962,-1.4947667680169826e-05,0.009240657009290583,0.29530394363836665,12.0,7200.03,0.11158074472008354,0.10241055050829562,0.14400000000000002,9599.776,1713.9680599911285,53.86773547094188,1113.8392857142858,175.92911156462526,221.33884750912267,357.90005297103085,1.0,1.0,93.75,215.56460506848828,80.1812724913576,54300.055036645965,2.688465752295501,0.25660764690787785,0.0,16111.55823098957,0.0,0.6206883377334291,0.0075070295505587,9.781775153411136,95.68312515189146,-50.31811728250455,33.68011473558854,-0.0009904586539639028,0.5370986176491163,0.00033686140527736244,0.04534281407217437,83.99823201809309
81,11,1,0.2775947575360204,0.25705618802725183,0.09925349570799515,0.00985125641025701,-0.0004995126336057294,0.08126280606010107,0.5006339164487823,0.0012730890021751902,0.019802873685086653,0.000176847345372663,0.010022274124255685,0.41937111038868125,12.0,7200.016666666669,0.14340445473487348,0.09388124813300593,0.0896,0.13280000000000003,0.010722282746761234,-0.39372975820051415,-0.3972399593899169,0.08908811449102426,0.007936692143565847,3.535534910030644e-05,-0.5838665800783744,-0.2762019180740214,-0.00022493840342419484,0.004846920750876601,-2.6140123677132094e-05,0.0002552295236511755,0.30766466200435305,3.0673266561359807,3.065024357543085,0.06027685933162297,0.003633299770884263,-0.0003997869701661015,2.8982533013439764,3.193557244982343,0.0008776376943391266,0.018531258907582993,0.00011744128692929059,0.009995079286500374,0.29530394363836665,14.0,6171.466857142858,0.1102132736995409,0.08447828474829408,0.11927272727272725,0.17163636363636361,0.013422607926387742,52.17391304347826,1150.0,73.02075903467451,0.0,109.375,1.0,1.0,62.5,0.0,0.0,0.0,-41.0350189197278,0.34794711203897005,0.0,9028.60708738811,0.0,0.3045270067048798,-0.05698269751453537,8.221091116470404,67.5863391453086,-30.41704611252571,25.871622026253988,0.0005777947538924476,0.4299944449136357,5.993074233923429e-05,0.035885564408679925,56.2886681387797
82,11,1,0.29486509091109153,0.2916408048577442,0.13579413168440754,0.01844004619992222,0.0007258114011493328,0.08126280606010107,0.5814594682468188,0.00023137306075546687,0.021710370395318496,0.0001129756833080002,0.010787074773127498,0.5001966621867178,10.0,0.6704000000000001,0.16682543738872452,0.13993648396316147,0.12088888888888889,0.17244444444444443,0.027236188038987374,-0.40248219536795726,-0.416231535131026,0.10250453774727533,0.010507180258782592,-0.0004897079172567675,-0.5838665800783744,-0.2762019180740214,-0.00012213804382720956,0.0053794949840867065,-1.5498197657746205e-05,0.00032468322289712966,0.30766466200435305,3.072162981335368,3.0782397913364616,0.07613259497669533,0.005796172017885535,0.00020071970639373718,2.8982533013439764,3.2188938649845253,5.2816691063588736e-05,0.02071064860599093,4.95968087668261e-05,0.01096510970003825,0.32064056364054894,12.0,0.3393333333333333,0.10720090346932072,0.08828250840134289,0.11200000000000002,0.16799999999999998,0.014358266396060321,51.474530831099194,1165.625,80.64679937852462,0.0,109.375,1.0,1.0,46.875,0.0,0.0,0.0,-38.35659646443444,0.3432887058015791,0.0,8450.577927214243,0.0,0.20169695891078296,-0.020688851587177717,8.061020288724542,64.98004809522871,-30.41704611252571,19.546767181249916,0.00036901211012791265,0.39675814088326783,-9.158990495085863e-05,0.03407764694823179,49.96381329377563
83,11,1,0.3687515058743135,0.37041647351517704,0.18731767934567922,0.0350879129954507,0.0015925139968048566,0.08126280606010107,0.882287493387709,0.002170530855958366,0.027209332358062097,4.5349873364432365e-05,0.013511403618245106,0.8010246873276079,12.0,0.338,0.21522532653628404,0.17753915821082297,0.11377777777777778,0.15644444444444444,0.027204829202841795,-0.48609773731315997,-0.5014788566932183,0.16470958952538475,0.027129248881620733,-0.0010894028866787293,-1.0214814110853616,-0.2895827363177195,-0.002355575687326293,0.007061793495585266,1.7770238685916225e-06,0.00036167746335290403,0.7318986747676421,3.0572425721088026,3.072749893329591,0.09329964399562293,0.008704823569709978,0.00042963363447823423,2.855881293563455,3.292938730872274,-0.00014272322951500532,0.02490266695111397,2.863309542124141e-05,0.012580748230194653,0.4370574373088192,12.0,0.3433333333333333,0.1430597391361196,0.11789469149989688,0.07466666666666666,0.12444444444444445,0.01154699638950972,46.829268292682926,1281.25,114.28702217443589,83.00717422140222,167.80212180819805,1.0,0.6666666666666666,78.125,112.79379076931102,121.36646039303166,43006.46550474809,0.929365414497885,0.19516003122560502,0.0,31105.815238371175,0.0,0.5614739209464038,0.02369319353982123,9.25550307359566,85.6643371453387,-50.401191056071625,22.41524669825371,-0.00045702561113809777,0.4690878576399967,-5.2947375987715734e-05,0.04159686375809961,72.81643775432534
84,11,1,0.4368842881265441,0.4533613791237538,0.24483997805123464,0.05994661485212906,0.0024907364594283815,0.08126280606010107,1.026895359531135,0.0010962486972056998,0.03232506365904194,6.488040386569602e-05,0.014292365102973832,0.9456325534710339,11.0,0.6370909090909092,0.21848647063754864,0.2279025927661813,0.13,0.19399999999999998,0.04874951283863782,-0.5249491274771716,-0.59183095024757,0.24889448053765845,0.06194846244211084,-0.0027603058280719905,-1.0759807905872343,-0.2895827363177195,-0.0005156773483566104,0.009027705856412674,1.5221842266573542e-05,0.0004354584916457515,0.7863980542695148,3.061153395383762,3.0664147088731952,0.11444855424579427,0.013098471568952512,-0.00023313346350734026,2.7043378835534564,3.292938730872274,0.0005003880430787792,0.02915829214393011,7.24826759191971e-05,0.013461901042188204,0.5886008473188178,12.0,7200.270666666668,0.15432360383934998,0.1597921642944167,0.08888888888888889,0.1528888888888889,0.027003188105815798,-1.0,-1.0,-1.0,-1.0,-1.0,-1.0,-1.0,-1.0,-1.0,-1.0,-1.0,-1.0,-1.0,-1.0,-1.0,-1.0,-1.0,-1.0,-1.0,-1.0,-1.0,-1.0,-1.0,-1.0,-1.0,-1.0,-1.0
85,11,1,0.4599468719711844,0.5176916044435607,0.1866177649635527,0.034826190199991794,-3.635430516214593e-06,0.2294284562877578,1.026895359531135,5.2317087829590925e-05,0.03496214021546464,-0.000294629724239434,0.015297739426427216,0.7974669032433772,13.0,6646.196307692308,0.22781981347209676,0.2165204229012734,0.128,0.18879999999999997,0.04033785384021698,-0.5619420560511097,-0.6413189876227937,0.2152144949549367,0.04631727883870847,-0.0006219019609078985,-1.0759807905872343,-0.3727591458951304,-0.0010488672543735459,0.009184849566614098,5.447088373395325e-06,0.00046963157204451156,0.7032216446921039,3.107343797739999,3.07926187282348,0.11964466408887593,0.014314845644939957,-0.0005327549707946846,2.7043378835534564,3.292938730872274,-0.0009617048210468881,0.03162004439622182,-0.0003238531111491629,0.014205907200856786,0.5886008473188178,12.0,7200.034000000001,0.17924850901424913,0.1927877879803701,0.09,10799.676000000001,2916.709024216745,53.48189415041783,1121.875,133.8288319085241,62.5,227.5034340400162,1.0,1.0,109.375,154.67960838455727,121.5339780164378,59058.26033359716,1.2727272727272734,0.17834849295523453,0.0,29522.48291326357,0.0,1.1076412115255485,-0.020919435725982035,11.057709633800005,122.27294234543345,-50.401191056071625,28.895020672635024,-0.0055470065112390304,0.4998486806373945,-0.00013016928789646385,0.04493154525475913,79.29621172870665
