,subjectID,Label,median_p,mean_p,std_p,var_p,slope_p,min_p,max_p,fdmean_p,fdstd_p,sdmean_p,sdstd_p,drange_p,peaks_p,rise_time_p,max_deriv_p,amp_p,decay_time_p,SCR_width_p,auc_p,median_t,mean_t,std_t,var_t,slope_t,min_t,max_t,fdmean_t,fdstd_t,sdmean_t,sdstd_t,drange_t,median_f,mean_f,std_f,var_f,slope_f,min_f,max_f,fdmean_f,fdstd_f,sdmean_f,sdstd_f,drange_f,peaks_f,rise_time_f,max_deriv_f,amp_f,decay_time_f,SCR_width_f,auc_f,bpm,ibi,sdnn,sdsd,rmssd,pnn20,pnn50,hr_mad,sd1,sd2,s,sd1/sd2,breathingrate,lf,hf,lf/hf,median_bvp,mean_bvp,std_bvp,var_bvp,min_bvp,max_bvp,fdmean_bvp,fdstd_bvp,sdmean_bvp,sdstd_bvp,drange_bvp
0,5,1,0.11664627869775601,0.1367340925726649,0.08772805346335599,0.007696211364469448,-0.00044994932451157825,0.013725631508302437,0.418655966356659,-0.0005283510030284559,0.014667672606807645,8.524260960402439e-05,0.005478744491991051,0.4049303348483566,9.0,0.44,0.11204088915534235,0.13007594492115027,0.11,0.16,0.021044457851317352,1.4055312635959485,1.373279687382193,0.16826291780755823,0.028312409509113092,0.0024112623890565478,1.1190868565894534,1.617966875096989,0.0020656237621937876,0.0011294701922973615,-3.6551452717169714e-06,5.662112593898167e-05,0.4988800185075357,3.0365478834168487,3.00863099970122,0.1526445324907237,0.02330035329931161,0.0018295176180125052,2.7397551844011683,3.318388123897427,0.0014455513303721949,0.014213146061068115,6.703816785788297e-05,0.005143903078865602,0.5786329394962588,9.0,0.44355555555555554,0.08992357364728774,0.1180533175917932,0.148,0.21,0.03166032812527809,65.50106609808103,916.015625,163.67840082455712,121.70126505779086,264.0886944601504,1.0,1.0,117.1875,185.82877890532578,90.36120610884102,52752.720919019564,2.0565106078984057,0.13651877133105803,0.0,10461.311544884486,0.0,3.603034921406042,-2.0420939619649356,45.748859800465574,2092.958173042655,-191.04926779084565,103.35093069682542,-0.027632166155892108,2.5422753111430714,0.0022234122798456385,0.24294458811373257,294.40019848767105
1,5,1,0.10271626645484459,0.12529235469591055,0.08723631743666733,0.00761017507991099,-0.00047045548297738963,0.013725631508302437,0.418655966356659,0.000747554316692849,0.014454018438015368,4.027559554040918e-05,0.005381399766571013,0.4049303348483566,8.0,0.47900000000000004,0.11589034896330178,0.13602048570298378,0.13942857142857143,0.1897142857142857,0.02557374294675266,1.5089306116879113,1.4915112915493969,0.12881284479233238,0.01659274898349351,0.0017866023515087052,1.199549011403064,1.642598225653006,0.0018528071158262882,0.0013131551116116918,-1.1305809017222539e-05,5.776790165695174e-05,0.44304921424994204,3.1043676483607765,3.108267664983172,0.11468862042664414,0.013153479655366855,0.001228884952498595,2.7546171126744223,3.343236316532076,0.002442018851185712,0.013881100911479169,7.2320976221026035e-06,0.005050041909874075,0.5886192038576539,9.0,0.42933333333333334,0.08424916905226373,0.10649176131241767,0.15085714285714286,0.20342857142857143,0.03077495882463412,-1.0,-1.0,-1.0,-1.0,-1.0,-1.0,-1.0,-1.0,-1.0,-1.0,-1.0,-1.0,-1.0,-1.0,-1.0,-1.0,-1.0,-1.0,-1.0,-1.0,-1.0,-1.0,-1.0,-1.0,-1.0,-1.0,-1.0
2,5,1,0.08737694700838144,0.09823405693063213,0.06182486459043554,0.0038223138816256903,-9.100454455281023e-05,0.013555846521857422,0.26534788559259453,0.00020918153778299244,0.011568500475995148,0.00012739031121973286,0.003994756164196157,0.2517920390707371,6.0,0.5960000000000001,0.08043417891564578,0.10998472658829932,0.14666666666666667,0.20266666666666663,0.02599406163172765,1.6107560643788563,1.581292635838673,0.08213550558499329,0.006746241277702464,0.0011160343675730912,1.4067814237605434,1.7703420251726962,0.0015347675423041441,0.0016574125543086756,1.949428873603461e-05,9.54540022497468e-05,0.36356060141215285,3.1766019488904176,3.166863095003694,0.0910877046072739,0.008296969930621987,0.0009555126253528896,2.9701641686614164,3.358119650904045,0.0016651234328178693,0.011440206574652853,0.00011401596909091742,0.0037818863459841484,0.38795548224262877,8.0,0.473,0.06386661542696626,0.092603942324954,0.15466666666666665,0.20799999999999996,0.030119601457961723,71.70124481327801,836.8055555555555,178.1693279259375,162.54673473257537,229.1074734158622,1.0,0.6666666666666666,125.0,146.1120847823493,103.77530648526702,47635.42396146211,1.4079658228048002,0.3985651654045437,0.0,147665.58336603845,0.0,2.2677987751812965,0.08041261177112892,43.17810425947639,1864.3486874422135,-191.04926779084565,156.93302903473057,-0.028306193438593592,2.564382103848529,-0.0009338365081149986,0.24319280476947044,347.9822968255762
3,5,1,0.09242305408566148,0.10624801961969718,0.06712911224219302,0.004506317710424949,8.076638212560077e-05,0.013555846521857422,0.27149790069576785,0.00021631427211137136,0.011568672059467952,2.8844115610853187e-05,0.004000204316710067,0.2579420541739104,7.0,0.5108571428571429,0.058359106023190985,0.07762263834605883,0.12114285714285712,0.16914285714285718,0.018348116168207796,1.6368293352357863,1.7090115805183452,0.1633724052198835,0.026690542787329814,0.0020457890381333946,1.5101256344270628,2.0921951343461367,0.0024318956627108358,0.002585517028103715,-7.5646249039604725e-06,0.0001176589311445871,0.5820694999190739,3.230013080843477,3.2935345055014724,0.16905478973786908,0.028579521933315123,0.0019864852152973816,3.015296792389619,3.6213753110307207,0.0025031651690246496,0.011488500647404835,2.1221879414214107e-05,0.003834607873227532,0.6060785186411017,8.0,1.187,0.05579774150371275,0.10893777903511981,0.14,0.196,0.03200906315438085,72.58979206049149,826.5625,158.33761644426127,103.90592366281251,158.57643070456592,1.0,0.6666666666666666,70.3125,104.55656197856632,112.79379076931103,37049.84195357192,0.9269709020810222,0.4842028810071419,0.0,78132.75917181026,0.0,1.963894513420836,0.07135851732948849,46.15601231462392,2130.377472787715,-191.04926779084565,156.93302903473057,-0.006931204016945162,2.6583045052480863,-4.93898025876473e-05,0.2490516616417158,347.9822968255762
4,5,1,0.09126410132324836,0.10097293443894508,0.05954438070315665,0.003545533273322454,-9.163272222895269e-05,0.013555846521857422,0.27149790069576785,0.00037664410365299134,0.010704166508579466,-2.536991593571405e-06,0.0036741575838311687,0.2579420541739104,7.0,0.11885714285714287,0.06659194941284334,0.0688361720732897,0.12000000000000001,0.16266666666666665,0.014968491089337422,1.7739488618766575,1.835293984405581,0.20553288214149593,0.042243765641390055,0.0028035024574711233,1.6065091094078037,2.156842924343535,0.002270853018075274,0.002865397602505922,2.6012917597671946e-05,0.0001404372338592254,0.5503338149357315,3.378699894723313,3.406581538639893,0.19286291253967022,0.03719610303328449,0.0025307470131465544,3.130003575341535,3.7329561266079,0.0024767698554798534,0.010623490302088116,1.706370521873668e-05,0.00350056774084432,0.6029525512663647,8.0,0.8320000000000001,0.060238980454006,0.08860468868827315,0.088,0.128,0.007931846738301477,75.44204322200393,795.3125,120.3125,83.00717422140222,181.54609435347265,1.0,1.0,93.75,127.89613706050703,67.7083333333334,27205.043437257464,1.8889275627397943,0.1258019876714052,0.0,7213.557341578137,0.0,0.45444578350636833,1.1304561792154024,42.998318055495744,1848.8553556015715,-190.20051622070153,156.93302903473057,-0.011272421876033105,2.41805416642503,-0.0006190571603150119,0.22548262601924118,347.13354525543207
5,5,1,0.09565145731031788,0.10946646465583866,0.05977638054018051,0.0035732156704844707,1.4040700404275323e-05,0.013555846521857422,0.27149790069576785,-0.0006608103279723635,0.010911089500565707,-1.2784873229734126e-05,0.004048842748063331,0.2579420541739104,10.0,0.1072,0.07035434315690446,0.06703029128734414,0.09244444444444444,0.13333333333333333,0.010858320273910874,2.0668012683095496,1.9902777409619443,0.21820936074821937,0.04761532511814654,0.0030167716637425858,1.6356225234252886,2.2674884379268905,0.002435272954673721,0.003090677949746182,-5.0854170564651e-06,0.00016198676951767558,0.6318659145016019,3.591100589593526,3.559176637108203,0.21247874535510264,0.045147217227678546,0.0028282423078411756,3.2038487312871275,3.9080214841564502,0.0016660918232166365,0.011245603711473205,-3.435748162063425e-05,0.003924788753276222,0.7041727528693227,10.0,0.9720000000000001,0.0659788473571549,0.09461311910359753,0.08266666666666667,0.128,0.007850809983089199,66.4089521871821,903.4926470588235,143.62959452659967,89.60755486502737,222.01189047861578,1.0,1.0,125.0,152.89610316877773,126.91435335067409,60961.69458054214,1.204718766098221,0.2605693440166764,49858.02647301577,115954.47757517126,0.42997931184411303,0.8780976324625345,-0.34822789509631474,39.05080176836485,1524.965118752127,-190.20051622070153,122.15434666571473,-0.006996301548976288,2.1825265176575366,0.0002825635972080968,0.21077052624068307,312.35486288641624
6,5,1,0.09415700380463057,0.10570913811380601,0.06309194230648286,0.003980593184004563,-0.00028788093756614615,0.009703713554945195,0.27149790069576785,-0.00019344364366384064,0.010971387810247457,-0.0001312107684570121,0.0041367866189730785,0.26179418714082264,10.0,0.11359999999999999,0.07791495295712907,0.07714717545638343,0.1031111111111111,0.14577777777777778,0.01401007316926748,2.1596787602517313,2.131687740082425,0.12298374344738928,0.015125001152333267,0.001571034252762683,1.7775556985806185,2.2674884379268905,0.0018741918523279772,0.003014518764309674,-3.5283234674966106e-05,0.0001406555983750797,0.489932739346272,3.6925123500803454,3.6876823042135567,0.11101870801234377,0.012325153528730043,0.0011964754677542965,3.3992801385425806,3.9080214841564502,0.001589060943662677,0.011009329210116842,-0.00017730094026423374,0.004022259382954819,0.5087413456138696,9.0,0.7537777777777779,0.0732718141589517,0.08788967318940417,0.09866666666666668,0.1466666666666667,0.012430598256090797,71.0015408320493,845.0520833333334,146.91631917322772,73.68641326594748,221.96301071349703,1.0,1.0,93.75,155.05795287569094,122.95197233066253,59893.46218613288,1.26112619371964,0.09867771857114663,0.0,85124.65639988446,0.0,1.760208297305652,-0.3239500781266781,34.08042942921341,1161.4756700795954,-190.20051622070153,122.15434666571473,0.009841482253859635,1.8159177180563844,0.0008228564622924384,0.1750327080462832,312.35486288641624
7,5,1,0.09335346138533762,0.09815932288978949,0.052231289569581514,0.002728107610101475,-2.3066753427169712e-05,0.009703713554945195,0.2701142070473974,-8.959803519850266e-05,0.010302233230968743,-2.0239378236866676e-05,0.0039880045686852775,0.2604104934924522,11.0,0.3861818181818182,0.08241702426029475,0.0863385610639589,0.11022222222222221,0.15644444444444444,0.015751991426669592,2.2116278989261593,2.186840915304933,0.06378381453385427,0.004068374996489119,0.00048127298814082284,2.062378657502096,2.2674884379268905,0.0002977210570197786,0.00212179149375021,-5.29516985425064e-06,0.00012561648662566397,0.20510978042479433,3.7385671164649,3.7320769548820616,0.08248280086666314,0.006803412438809605,0.0004267990589614874,3.557670313177129,3.9080214841564502,0.00018558213411702939,0.01026689741532513,-3.1274963191183874e-05,0.003789952098669347,0.3503511709793212,9.0,0.4382222222222223,0.0780103975073582,0.08961878611964987,0.09999999999999999,0.15000000000000002,0.012328162342811755,66.41509433962264,903.4090909090909,148.80235987281588,127.59752321141465,256.62605790088816,0.75,0.75,78.125,171.94157091463876,84.64042453132991,45720.24994660655,2.0314355919965177,0.30205396697543296,0.0,106968.2181317134,0.0,0.8654919054096943,-0.15697410593161057,23.26587374258889,541.3008810060871,-112.2462840009343,117.02924901481909,-0.00015150650327129997,1.2622958752395501,-0.0001564396063503734,0.13521299478635643,229.27553301575338
8,5,1,0.0929798002318594,0.09714280346790982,0.05435798236135066,0.0029547902463969095,-0.0003349878508816059,0.004565127712945413,0.2701142070473974,-0.0005236066904775277,0.00974678338580143,-4.79384192663675e-05,0.0038917930511073737,0.265549079334452,11.0,7854.565090909091,0.08132416090921314,0.08698754613570456,0.12088888888888888,9599.744,2503.0589591940275,2.2116278989261593,2.1985706113176087,0.0453039887716155,0.002052451398618663,-0.0005697991398587441,2.1174203846033817,2.2674884379268905,-0.00017650713202334116,0.0016758309742975338,-2.4580005934200324e-05,8.815393755738193e-05,0.1500680533235088,3.7435123516887896,3.742085610672218,0.071191103722729,0.0050681732492603585,-0.0008454584574190382,3.577775821610281,3.9080214841564502,-0.0006576888856987623,0.009573854642463757,-6.128731870129605e-05,0.003697014649993032,0.33024566254616916,10.0,8639.728000000001,0.07216482450354747,0.087942079762648,0.1,0.148,0.010855951595232732,66.78260869565217,898.4375,187.3371688794031,51.55986946151909,275.6975055805426,1.0,1.0,140.625,191.43724947384482,111.34144961683307,66962.73597600443,1.7193709093302707,0.41759465478841873,0.0,70898.53651769669,0.0,2.56796789624362,0.3295378054754139,18.53339788195817,343.4868370509716,-105.4980790164674,69.06966988332576,0.028157155415981853,1.1261104941871518,-0.0007621957301335141,0.12629544960607628,174.56774889979317
9,5,1,0.06236235867319136,0.06958568267413133,0.05017823321816355,0.002517855088896412,-0.0003462820613690675,0.0025335761033907114,0.20207635347363526,-0.0001381420586931093,0.007669528992725745,2.5379213804135592e-05,0.002954073713641264,0.19954277737024453,7.0,0.5337142857142858,0.07707919560854419,0.0791915653951512,0.1248,0.1728,0.015658593261410923,2.1639830118890835,2.1553164911616887,0.06624044370976832,0.004387796382866987,-0.0009185344096809703,1.9844768211597108,2.237707192858722,-0.0010169262314453245,0.001023669584969631,-7.204166349386356e-06,5.095716696326293e-05,0.2532303716990114,3.6992247508015215,3.6760606975732424,0.09248152720343746,0.008552832873880142,-0.001179890266205986,3.4826873272195966,3.8650044689168626,-0.0010460367288506263,0.007281500161634394,1.3564773870360091e-05,0.00275044470189125,0.38231714169726594,6.0,0.12,0.06827151564038925,0.06994789518761697,0.11840000000000002,0.16960000000000003,0.01411088707651655,68.43564356435644,876.7361111111111,150.1309549245032,103.90592366281251,209.82538623420507,1.0,1.0,78.125,73.47258322742648,73.47258322742647,16959.009821624586,1.0000000000000002,0.3803245436105477,0.0,32959.120216475414,0.0,1.9717691651156168,0.29680418335504,15.557267194816779,242.02856257092233,-85.46210427937612,44.812533904130085,-0.0011132404609975452,0.9860649173858073,-0.00018700330251800328,0.11955341900793706,130.2746381835062
10,5,1,0.04957074246368735,0.06315830771670533,0.04810617375750313,0.002314203953587083,-0.00032256361601296215,0.0016637934212336307,0.17512040498431525,-0.00016874426352982936,0.006916316906870829,-5.587781660210536e-05,0.0027070553615469047,0.17345661156308162,7.0,0.5268571428571428,0.06110497249507712,0.0671473557373715,0.12000000000000001,0.17866666666666667,0.01319235920648737,2.1172992079002775,2.0852835194472017,0.09293441078407076,0.008636804707782407,-0.001305499095235083,1.940178623514422,2.22309127459352,-0.0011315138494628568,0.001016176074428837,8.909147996132016e-06,4.937617994838109e-05,0.282912651079098,3.5959770315027724,3.6046313802613392,0.11337525184569232,0.012853947731074159,-0.0015206495695724333,3.411743064400849,3.7936019088075015,-0.0012082598538876415,0.006694703017581541,-4.544685526950328e-05,0.002512807699599966,0.3818588444066524,6.0,0.5853333333333334,0.047629827280162296,0.056734895914278306,0.0992,0.16,0.011006592207689393,69.08545727136432,868.4895833333334,148.70566967528976,93.49647432820959,207.19087792620923,1.0,1.0,85.9375,120.82042405897964,150.87319987073948,57266.72270867781,0.8008077257093537,0.2879907842949026,0.0,62052.45290925996,0.0,0.6344818622774945,0.6258071555337925,21.406981135668964,458.2588413428869,-85.46210427937612,145.85216822154345,-0.0044553389886709946,1.0416811954707696,2.7210787609629333e-05,0.12409849443125216,231.31427250091957
11,5,1,0.04533529893007504,0.06207542579974287,0.05254296345708968,0.0027607630088530614,0.00017254293475572245,0.0016637934212336307,0.23109013069033066,0.00017128839324669925,0.0074415996403692595,5.7812377798548564e-05,0.002612895305460359,0.22942633726909703,6.0,1.0826666666666667,0.05973670849823955,0.08678870344899725,0.1376,0.2144,0.02102104015704382,1.9960681961251407,2.0326914227459505,0.0764084825455088,0.005838256204907324,-0.0009503626033965121,1.940178623514422,2.1634828136794395,-0.0007912248279163036,0.001344370039498576,-7.301881369356269e-06,6.944810349453193e-05,0.22330419016501746,3.540565446658234,3.5545150445841345,0.08601748844529569,0.007399008318436578,-0.0007276836671047002,3.411743064400849,3.7616331214191696,-0.0005719365238771192,0.007253169991159321,3.3236038065767116e-05,0.00240057100274192,0.34989005701832054,6.0,1.0773333333333335,0.05053292161902837,0.07919074254116154,0.11839999999999999,0.192,0.01843306954890802,77.08908406524466,778.3203125,182.06802455116835,148.80001623066752,270.3320681741871,1.0,1.0,125.0,191.09055677177162,177.49985056940326,106558.25264763884,1.076567423345826,0.48204386599180526,0.0,113657.12397201953,0.0,-0.8549883160600484,0.09411267211537866,20.843984014106148,434.47166958031266,-85.46210427937612,145.85216822154345,-0.0015303755375290892,0.9860498780002864,-3.432250369624255e-05,0.11719116275492382,231.31427250091957
12,5,1,0.049156258980511215,0.06145123495201705,0.04860572089601735,0.0023625161038215376,0.00033865984422496066,0.0016637934212336307,0.23109013069033066,0.0006662681730522463,0.0074709230048144995,-1.3204071414090086e-05,0.0025543936988711123,0.22942633726909703,7.0,0.950857142857143,0.04214309296120618,0.06630085822258901,0.11466666666666665,0.18400000000000002,0.01525088248204358,1.964367975952174,1.9665102489331363,0.07847086001031375,0.006157675870758258,-0.0009535428242809673,1.8172319115706,2.1171780311971737,-0.0011112914176657066,0.002006649790863314,1.5111601670158662e-05,0.00011819633605321766,0.2999461196265738,3.4948218756066867,3.4921551798573605,0.07743306111754693,0.005995878954033759,-0.0005751613841117904,3.3067155536073,3.6796724791127904,-0.00040732770086338764,0.007760085821801852,4.117737656225695e-06,0.002364196014161718,0.3729569255054903,5.0,1.2672,0.03956417622981299,0.07517561444516448,0.1056,0.176,0.016100752496153056,79.52662721893492,754.4642857142857,151.3089940185922,57.17075211993615,158.0256251823916,1.0,1.0,148.4375,99.67461411502725,169.3194756117221,53020.19863753949,0.5886777865034134,0.0947238798901203,0.0,130347.12670314158,0.0,-1.153871346587758,-0.037682734052336166,18.97069574169327,359.88729692389916,-64.22216866686794,145.85216822154345,-0.00038926857046614564,0.8428288710927553,0.0001349373916485973,0.10156572303246407,210.07433688841138
13,5,1,0.06862781149856642,0.07305257521712892,0.04667020334521956,0.002178107880284143,0.00010200356611644049,0.0016637934212336307,0.23109013069033066,0.0001451463901330003,0.008009386004195379,1.4207209933458009e-05,0.0026460808691640848,0.22942633726909703,8.0,1.209,0.05254547687949623,0.08074262381963221,0.12114285714285714,0.18971428571428572,0.01883842202038324,1.9493020533227723,1.934296271818628,0.05243746804020287,0.0027496880544672976,-0.0002347554107339475,1.8172319115706,1.9964502206756187,-9.156690200451862e-06,0.002309814915639101,1.2340076687632207e-05,0.00011935387793100676,0.1792183091050188,3.470082565760576,3.4728892628720294,0.06944154785211494,0.004822128568097568,-0.00012227291531277846,3.3067155536073,3.6796724791127904,0.00010770181744431488,0.008042130420385778,3.253861912169513e-05,0.0024680471779255707,0.3729569255054903,6.0,2.04,0.05807526158014683,0.10285049931318735,0.116,0.19599999999999998,0.01971688801735054,78.73817034700316,762.0192307692307,185.80502372572164,100.72437294694645,222.07297505549838,1.0,1.0,156.25,156.64013793565172,96.8806001965535,47674.89555544205,1.6168369892203058,0.201999798000202,0.0,126523.99914349502,0.0,-1.1512088491598493,0.05966564788699236,17.904235658412087,320.5616545119549,-64.22216866686794,145.85216822154345,-0.006079776181159701,0.742529202559535,3.938288572779905e-05,0.08989030304077118,210.07433688841138
14,5,1,0.07468343178002901,0.08219772162247621,0.044291327386405906,0.00196172168164979,-3.783424954210751e-05,0.01669399996059134,0.23109013069033066,1.7119505297839093e-05,0.008641441008276286,-2.600392199299612e-07,0.0028828777684827803,0.21439613072973931,8.0,0.8480000000000001,0.05668895331580216,0.07299519357421569,0.1142857142857143,0.16914285714285712,0.01568470408807659,1.9706332693763586,1.9430042270514924,0.056804198331539,0.0032267169480888177,0.00013115294579637814,1.8172319115706,1.9964502206756187,6.351620266983882e-05,0.002265726692634834,-1.3070473172177345e-05,0.00011943095258792912,0.1792183091050188,3.4904926183395197,3.489589307155261,0.07402947113973218,0.00548036259722844,8.673565331443744e-05,3.3067155536073,3.6796724791127904,7.728732098823224e-05,0.00867308385894521,-1.3232822753798945e-05,0.0027067950817788004,0.3729569255054903,7.0,2.177142857142857,0.056782104758445584,0.10285672642272774,0.10880000000000001,0.1856,0.020075517522425246,82.21662468513854,729.7794117647059,169.4569805366399,72.3447624119224,190.08632907181936,1.0,0.875,109.375,134.411332297541,84.50510801868725,35683.60471273913,1.5905705045405967,0.2419745120180674,0.0,301628.05532037653,0.0,-0.6624485379690012,-0.8357204596962677,11.649435193824868,135.70934033512543,-52.063946492704964,51.49181004003632,0.014559773629611734,0.8439582340027365,0.0003268564761281536,0.10054487498849815,103.55575653274128
15,5,1,0.07680256823344112,0.09973523260379942,0.08553315795406599,0.007315921109595202,0.000587405872274883,0.01669399996059134,0.5322582851086469,0.0018836509321795425,0.010436357978935431,6.182363990877592e-05,0.0030999287423777184,0.5155642851480556,6.0,1.0853333333333335,0.05460656325286478,0.07144789324827595,0.11839999999999999,0.176,0.016268751574340917,1.9308284134471734,1.894349106617139,0.10264484840397534,0.010535964903875077,-0.00043783005243588555,1.612502253666928,1.989218118605867,-0.0014954293998511925,0.003642313560899451,1.9614798614080166e-05,0.00020523271472075457,0.37671586493893905,3.4683969749609913,3.460523072014662,0.07923023904298641,0.006277430778808768,0.0001377535096459856,3.2175789973517355,3.6192967887521172,0.0003668440490715676,0.010249213287636533,6.719482030096285e-05,0.0029305213084280806,0.4017177914003818,5.0,2.432,0.053785246922898725,0.09949073684406332,0.10133333333333334,0.18133333333333332,0.017365023582944897,71.70124481327801,836.8055555555555,151.33074189125625,7.8125,133.04208098380002,1.0,1.0,109.375,93.91261937633834,5.524271728019869,1629.854587128484,17.000000000000103,0.13285505513484788,0.0,44942.567089846874,0.0,0.749796840241066,0.18133275008610558,30.76748602133627,946.6381960731228,-185.7513713461994,116.52287441728838,0.008499619304034717,1.8081057163406533,-0.00010188927642795267,0.1875042372899492,302.2742457634878
16,5,1,0.09834467280264425,0.1528189014831582,0.1489478240711316,0.022185454295524775,0.00105830740188398,0.01669399996059134,0.5620470928683948,-0.0001752665862638157,0.011981202638455188,1.6499589996288556e-06,0.0033284648947709936,0.5453530929078035,4.0,2.278,0.05251499718636582,0.10590186132498611,0.144,0.22,0.027975415510875776,1.9532957355927518,1.8975410188470014,0.12777562934683942,0.016326611454980895,-0.0005080691515525433,1.612502253666928,2.0762098981679036,0.0009357258024328783,0.0055287921587082985,-1.7276214838212364e-05,0.00029092467333339785,0.46370764450097557,3.5090589583548426,3.5131448734330144,0.09504175098875466,0.009032934431008447,0.0005145818441031559,3.2175789973517355,3.6966396940518873,0.0007223238104061937,0.010165751353041224,-2.6151827740794145e-05,0.0030758971130903723,0.47906069670015183,5.0,1.8544,0.04073148916893991,0.07352979035278775,0.09600000000000002,0.16799999999999998,0.014236701086992737,68.22335025380711,879.4642857142857,156.18621146907054,0.0,265.625,1.0,1.0,109.375,0.0,0.0,0.0,2.9312035904850733,0.3250446936453762,0.0,21884.56154987918,0.0,1.9874164043180649,-0.13741375300426148,39.547462246978235,1564.0017701761685,-185.7513713461994,131.2948439499055,0.018715393036994075,2.406469041337694,-0.00022207194696821165,0.24613886157434475,317.0462152961049
17,5,1,0.12932282784808524,0.18359869837290002,0.14919613466075002,0.022259486597708652,0.0006922131368219691,0.01727080713611338,0.5620470928683948,0.0006882608663004837,0.013365646889135666,-0.00010389718553653558,0.003801457359163337,0.5447762857322814,5.0,1.8416000000000001,0.08310261052735914,0.14165913209004954,0.14400000000000002,0.224,0.029402770164514383,1.960143523858415,1.906876267837874,0.1338833023007299,0.017924738634948627,7.944173181448962e-05,1.612502253666928,2.0762098981679036,-0.00036644424587826914,0.005695953001095597,-9.786996525894266e-07,0.000300728765957545,0.46370764450097557,3.5640078325409426,3.55055167825892,0.10273225379806901,0.010553915970430865,0.000722633268858324,3.2175789973517355,3.750445317317689,0.0003599391610528274,0.011436710915826293,-8.542595436181558e-05,0.003480191769130576,0.5328663199659536,6.0,0.6120000000000001,0.06279340911296998,0.09258238113777624,0.10666666666666665,0.17333333333333334,0.018835227524047458,60.47244094488189,992.1875,154.40314773750566,171.56221539138505,300.6340954965022,0.8,0.8,164.0625,208.3932205591151,93.90612000822948,61479.07943841372,2.2191654871999025,0.4033477866290209,0.0,75851.5414039822,0.0,3.501035557466899,0.12317816066443872,44.60222741710975,1989.3586905675766,-185.7513713461994,131.2948439499055,0.0013221840349525542,2.6170880308149567,-0.000149629862178308,0.2644195724368648,317.0462152961049
18,5,1,0.17118944411713893,0.20727331989393466,0.14842523949840306,0.022030051720158306,-2.9949959193340777e-05,0.03031130207629344,0.5620470928683948,0.0006619826437823178,0.016335205013408703,6.693332713202843e-05,0.004674288482683249,0.5317357907921014,6.0,1.5613333333333335,0.11723692572467725,0.18000433123977488,0.16,0.23679999999999998,0.04493388296614344,1.9346530407634126,1.918867465456892,0.1528643853431526,0.023367520306339852,0.0013808882459662932,1.612502253666928,2.2509090351145886,0.0011981127695292553,0.006455229658246299,4.3702008040177874e-05,0.000307542480655694,0.6384067814476606,3.5709585109506197,3.5837979681615253,0.14338706259716913,0.0205598497202445,0.0012611081910113345,3.2175789973517355,3.929934301314751,0.0017377390123120987,0.014856165474740134,0.00010464577132232033,0.0043843733909922555,0.7123553039630157,7.0,0.9531428571428572,0.08631421084070696,0.12331892906009198,0.09599999999999997,0.16,0.012701580397796555,62.77929155313352,955.7291666666666,206.38739636536002,217.00694433332976,351.1282039725661,0.6666666666666666,0.6666666666666666,140.625,240.26172072230824,153.4470819026691,115822.54129695847,1.5657627225176254,0.34891835310537334,0.0,78494.0921703173,0.0,0.7827173719633511,0.09866371208393084,49.223389187653495,2422.942043119203,-185.7513713461994,131.2948439499055,-0.020008539685489355,2.8091270270402355,-0.0009206186975426064,0.2788380174894939,317.0462152961049
19,5,1,0.1478169216085446,0.2006180796464432,0.13861415020059667,0.019213882635833575,-0.0007633888397877561,0.03031130207629344,0.5620470928683948,-0.001876574573753071,0.015294674202007379,-4.5501279562490985e-05,0.0046982074151718164,0.5317357907921014,8.0,10799.991,0.10720643101485752,0.17890429910292852,0.15466666666666667,14399.568,6775.860325963934,2.03138711999192,2.060438302961602,0.2052614479646541,0.042132262020546395,0.002494142386958642,1.616712285814978,2.384229050859388,0.0030127635823521412,0.005169299837559139,-1.5253793079252066e-05,0.00026569759639647063,0.7675167650444101,3.6547606242276887,3.7097695522795164,0.16225452020394196,0.026326529326611413,0.0016146882267172378,3.4743405504775486,4.034185524442461,0.001060446055177471,0.014127584742587714,-5.678348257778844e-05,0.004419407194629854,0.5598449739649123,9.0,1.0782222222222222,0.08772523180590931,0.12142521651935612,0.094,0.154,0.014636856946949564,53.333333333333336,1125.0,45.55431167847891,0.0,15.625,0.0,0.0,7.8125,0.0,0.0,0.0,-1.8446874524083385,0.22232103156958646,0.0,426.75591502946185,0.0,1.1766925647874251,0.1517817604956041,50.10508441060772,2510.5194837941244,-166.97108876620783,135.8612845586007,0.003143101295665516,2.870334426570927,0.00020468595343327647,0.2846258445248191,302.8323733248085
20,5,1,0.1343107490055533,0.1643987195003404,0.09211173102615572,0.008484570992634858,-0.00020482929638482504,0.031525683060703066,0.4128210832318674,0.0010420122487708931,0.016069525551628692,9.688708047447526e-05,0.005155147562637966,0.3812954001711643,8.0,0.485,0.11371467141164943,0.13535833210896622,0.112,0.1645714285714286,0.025354831426489834,2.2548790171246242,2.18036936839672,0.1896681115574564,0.03597399254177172,0.002378762203241542,1.8928011498151802,2.384229050859388,0.0011820111981594003,0.003973358777492579,-1.6173918956923403e-06,0.00016784027448355984,0.49142790104420797,3.869682597699436,3.7878203493823177,0.1768112793370105,0.03126222850079035,0.002031197633876472,3.4743405504775486,4.1399036745287425,0.0020676505763037147,0.015411139385525217,0.00011043467502773833,0.004864896951645106,0.6655631240511939,9.0,1.4008888888888889,0.09035779300373194,0.12963709907079635,0.09999999999999999,0.164,0.016889101130697956,57.3134328358209,1046.875,157.80476466190746,121.70126505779086,210.59965228287217,0.6666666666666666,0.6666666666666666,62.5,95.61229036815531,208.9184491680372,62753.85180335082,0.4576536478655003,0.10617965597791462,0.0,62382.408346785945,0.0,-1.0102070994354357,0.08034940063550663,43.967347319767505,1933.1276303370666,-166.97108876620783,135.8612845586007,-0.020105847005393324,2.449275502034955,0.00039363365017810206,0.24356692540379446,302.8323733248085
21,2,1,0.01992453696816042,0.030776477621361775,0.0298836819987475,0.0008930344498022653,-0.0001017404439571611,0.002804594233497792,0.1261404740139917,-6.645851204020797e-05,0.005445691705597293,2.4111828714081137e-06,0.0018446861253822158,0.1233358797804939,6.0,0.12000000000000001,0.05043317350919895,0.060723099482845745,0.14079999999999998,0.1984,0.014721905529413454,0.6154399548837233,0.6189806466635576,0.02486422103244547,0.0006182294875503036,0.00010239729900763365,0.5844435742119745,0.664286805326715,-0.0001023575039294763,0.0009173493057539457,-4.2360161404279374e-06,3.6661630141847034e-05,0.07984323111474056,0.6030996766738173,0.6053521251675157,0.0137680365837741,0.000189558831372142,2.3083131170418756e-07,0.5830820620907533,0.6448043745970196,-5.441004712280623e-05,0.0019234467053585152,-6.524120137506191e-06,0.0006273173805412599,0.06172231250626625,4.0,0.148,0.02222346228419303,0.031169002767632875,0.19199999999999998,0.26666666666666666,0.010532813693969622,65.54765291607397,915.3645833333334,148.56879244784122,12.757759076995718,63.78879538497859,1.0,0.6666666666666666,54.6875,39.32205435036848,22.702598664274337,2804.540032588715,1.7320508075688774,0.18216595318335002,0.0,83799.46351962956,0.0,-0.42667867892291245,-0.47272341059033385,14.329145708813297,205.32441674440253,-69.37575367222519,40.16404842581768,0.007916754192243722,0.8553483654207632,7.595590716848271e-05,0.0861090521297348,109.53980209804287
22,2,1,0.0187598950206778,0.02852406771122835,0.027690821790697207,0.0007667816114441513,-5.956333617152675e-05,0.002804594233497792,0.1261404740139917,0.00013784214412687276,0.004970253232093097,-7.012788862962603e-06,0.0017954672848337829,0.1233358797804939,6.0,0.10933333333333334,0.04260422807725065,0.045197613046043916,0.1568,0.20800000000000002,0.010892371540909062,0.5999287545762579,0.6099240304224051,0.03210982160043499,0.0010310406432117616,-0.00016709651262613307,0.5415821022829161,0.664286805326715,-0.00022243420854654977,0.0009964122382962299,-5.123881235986431e-06,4.027240883431262e-05,0.12270470304379888,0.5985274911440982,0.6016126147871129,0.014547530217462839,0.00021163063542799438,-7.456172555554179e-05,0.5796338131896603,0.6448043745970196,-1.7810242009535608e-05,0.0017537668029135387,9.133315907420998e-06,0.0006131078862610845,0.06517056140735922,4.0,0.14800000000000002,0.01798598904389659,0.02641883315665064,0.21599999999999997,0.288,0.011897731457851713,66.72985781990522,899.1477272727273,131.46688593371124,129.02456691338864,187.98764711743695,1.0,0.75,46.875,124.35747952915317,86.77679645126196,33902.00605350481,1.4330729482390876,0.20232675771370764,0.0,24173.655942802696,0.0,0.15450302073984407,-0.0902302154880023,13.591436180884983,184.72713745906938,-69.37575367222519,40.16404842581768,-0.006623707099178523,0.8284346742383174,0.00015769553355698127,0.08670860773847093,109.53980209804287
23,2,1,0.023745817686336976,0.02992568251620318,0.022294796686207513,0.0004970579592793295,6.475024557496352e-05,0.002825927450961197,0.11188572480972471,0.00010603645894264022,0.0037801765969563473,1.027928262647262e-05,0.001492055981596421,0.10905979735876352,7.0,0.52,0.028914566047452094,0.033130566390429626,0.15360000000000001,0.22080000000000002,0.009085222807368527,0.5874618266655922,0.5846665937211414,0.06097525335423848,0.003717981521613571,-0.0008417481232730525,0.4757449153518955,0.664286805326715,-0.0006066205536760164,0.0009505458327977055,-3.5055182539249034e-06,4.240877635566209e-05,0.18854188997481952,0.5923739682408593,0.5937720137438914,0.019656822730394895,0.00038639067985416934,-0.00025486139883673127,0.557071912373468,0.6448043745970196,-0.00016687400153368078,0.001522467070088987,8.467051349600925e-07,0.0006597897228238437,0.08773246222355158,3.0,0.144,0.012641415056011388,0.019790494512071266,0.16,0.24799999999999997,0.00590168420762226,68.90701468189233,870.7386363636364,121.77860937132279,35.58763116853242,89.4181495489031,1.0,0.75,62.5,62.68283803078599,71.33586862402213,14047.740559849162,0.8787001439788699,0.31341412452987877,0.0,21917.55422864735,0.0,0.05115723063231182,-0.13678754633806403,14.74597759171124,217.44385513525,-69.37575367222519,40.16404842581768,0.002558901379313564,0.9419324586643836,-0.00011047239156757473,0.10518433951774016,109.53980209804287
24,2,1,0.029395121803802278,0.06502220083983068,0.08896022157520066,0.007913921022708796,0.0008895739761791754,0.002825927450961197,0.33969700077125464,0.0007083078934149655,0.009524379572116173,-7.460607615170455e-06,0.0032236878456785,0.3368710733202934,7.0,0.9417142857142858,0.060979515218167156,0.08323309772868374,0.20800000000000005,0.2773333333333333,0.010120145891907253,0.5730576131948257,0.5578005759479382,0.05371250835568496,0.0028850335538595268,-0.0004515858018028747,0.4757449153518955,0.6553413994287153,2.3713602659922866e-05,0.0019207794856033987,2.4125982469563183e-05,4.484594934323909e-05,0.17959648407681977,0.5904635578959568,0.5964881342304866,0.03480404869289227,0.0012113218054172162,0.00014395284920603666,0.5554404125978801,0.7084316218285736,0.00023568513993083942,0.00335043747703364,6.479917974948115e-06,0.001146039939419045,0.15299120923069343,3.0,2.058666666666667,0.03776298092938424,0.06457963403193119,0.128,0.22399999999999998,0.007563639922821684,65.22292993630573,919.921875,167.27463777679918,23.4375,212.2355891750957,1.0,1.0,132.8125,149.15533665653737,193.3495104806966,90600.7402844957,0.7714285714285714,0.4078857919782461,0.0,31116.234479266364,0.0,0.10815840087038059,0.1459169123708242,16.900837272125415,285.6383004988636,-69.37575367222519,54.801649575387415,-0.0026135612072753786,1.0352052317378633,0.00024498452778611116,0.1097180809022627,124.1774032476126
25,2,1,0.05206235342081939,0.08937819729099877,0.08712813304424048,0.00759131156777487,0.0006672210628736649,0.006861844805489462,0.33969700077125464,0.00011912446819931458,0.01063939691725278,-1.3826814468721019e-05,0.00375500085271891,0.3328351559657652,8.0,0.8360000000000001,0.0722736353975789,0.08685291703793341,0.192,0.2514285714285714,0.010852778205078592,0.5730576131948257,0.5891391757303346,0.09805674689120385,0.009615125610885615,0.0009020411894027552,0.4757449153518955,0.767808229000045,0.0007493671194944831,0.0020875165706705405,1.283232049632127e-06,6.769135325351364e-05,0.29206331364814947,0.5919650657400428,0.6147849697554354,0.047974961575959395,0.00230159693821478,0.0005160413476880041,0.5554404125978801,0.7084316218285736,0.0002822906115026206,0.003713134040607406,-4.970657766925277e-06,0.0013069346223636,0.15299120923069343,5.0,1.2896,0.03400132458633696,0.05139615751125128,0.112,0.19199999999999998,0.006115491505238238,56.470588235294116,1062.5,128.8470508005519,0.0,187.5,1.0,1.0,125.0,0.0,0.0,0.0,1.9829476968653075,0.23540489642184556,0.0,8725.936982823248,0.0,0.7029295395558528,0.3743893912090121,20.12591110227204,405.0522976965568,-91.11836933240882,54.801649575387415,-0.004999201248797309,1.1422351695395996,-0.0005420250165187093,0.11887373490169488,145.92001890779625
26,2,1,0.06138868368300461,0.09837164642615193,0.08341401947477958,0.006957898644938907,6.609998410926305e-05,0.00791305640116408,0.33969700077125464,3.254725324799065e-05,0.011246436800007453,3.862395283549236e-05,0.003932201756029579,0.33178394437009057,7.0,0.5337142857142858,0.09414055211577312,0.11185397311448797,0.18933333333333335,0.24266666666666667,0.015182110824782692,0.657668107419368,0.646679639281731,0.13521530098442552,0.018283177620308788,0.0018505494979453925,0.4757449153518955,0.8949494979236404,0.001485800516721838,0.002054425536116067,2.6959845787935762e-05,7.155887243412617e-05,0.4192045825717449,0.6587506435091788,0.6366645340475284,0.052416053688262694,0.0027474426842508375,0.0006298560174868445,0.5554404125978801,0.7086933454868358,0.000488637653817328,0.003919685113942789,1.6223624729933574e-05,0.0013649375270073127,0.1532529328889557,6.0,1.1013333333333335,0.036740578579473805,0.053457362904404206,0.088,0.152,0.0070198070681783895,-1.0,-1.0,-1.0,-1.0,-1.0,-1.0,-1.0,-1.0,-1.0,-1.0,-1.0,-1.0,-1.0,-1.0,-1.0,-1.0,-1.0,-1.0,-1.0,-1.0,-1.0,-1.0,-1.0,-1.0,-1.0,-1.0,-1.0
27,2,1,0.0752209352426549,0.10215222586775109,0.08176538327163833,0.006685577901557913,-0.000567491213390643,0.00791305640116408,0.33969700077125464,0.00011178224219044193,0.011568798059534998,1.6825370442779498e-05,0.004077618575404188,0.33178394437009057,9.0,0.4346666666666667,0.08415582681408014,0.09665184676015624,0.11199999999999999,0.15771428571428572,0.012498465943831232,0.7676919110647975,0.7640608038603047,0.15496891023398443,0.024015363139108726,0.0021864817481729547,0.4798102641495977,0.9837561064808771,0.0020443891048070226,0.0017380709446796726,-4.960256505791236e-06,8.936753819262037e-05,0.5039458423312794,0.6773738420708766,0.6764743331691409,0.04573670084552742,0.0020918458042332683,0.0005321449902574075,0.5554404125978801,0.7511431950773176,0.0007123441894208125,0.003978073819366586,3.0660870375444813e-06,0.0013985789853740004,0.1957027824794375,8.0,1.215,0.03191746530005479,0.04601163635067909,0.10133333333333333,0.17066666666666666,0.006876956577789389,55.42268041237113,1082.5892857142858,151.88415925182144,0.0,78.125,1.0,1.0,171.875,0.0,0.0,0.0,1.7282077350739722,0.13199577613516367,0.0,2714.4881533238004,0.0,0.19464339147468737,0.018818821110289305,23.363009463805856,545.8302112058819,-91.11836933240882,62.507959420547536,-0.0013864552786101833,1.3201177132152475,-3.0286286443385996e-05,0.12203554225236393,153.62632875295634
28,2,1,0.0637870851697517,0.07605769121970338,0.05247459688222487,0.0027535833179520037,-0.00016957739866196194,0.005990664343652941,0.25132906452548526,-0.0001044570777494572,0.008860678511014715,-5.015476122097781e-05,0.003159476873319407,0.2453384001818323,9.0,0.4328888888888889,0.06679791465775332,0.07808875414237314,0.11885714285714287,0.16914285714285712,0.011101694616150019,0.8971415181294915,0.8751636492576164,0.10903203916788867,0.01188798556510801,0.0015087735184825992,0.6599948154100208,1.0283911766262583,0.0015473357965593646,0.0015765982243021398,-1.390290421701366e-05,8.356924783220867e-05,0.36839636121623753,0.7105318286685303,0.7044357091365824,0.036171881291206714,0.0013084049961451505,0.00044029122986218976,0.646604790213359,0.8097760846054165,0.0004781522340606553,0.0031152800680166984,-1.5775794933771865e-05,0.0011323236248320225,0.16317129439205746,8.0,0.858,0.02494426707622982,0.03608398726200024,0.12266666666666669,0.19733333333333333,0.004499585765226644,-1.0,-1.0,-1.0,-1.0,-1.0,-1.0,-1.0,-1.0,-1.0,-1.0,-1.0,-1.0,-1.0,-1.0,-1.0,-1.0,-1.0,-1.0,-1.0,-1.0,-1.0,-1.0,-1.0,-1.0,-1.0,-1.0,-1.0
29,2,1,0.05566713827566906,0.06856826394813206,0.04809242297824624,0.0023128811479185465,0.00012960065895836463,0.005990664343652941,0.25132906452548526,8.666946969921515e-07,0.008305020378645677,-2.0224700740891106e-05,0.002770333034057945,0.2453384001818323,10.0,8640.015200000002,0.05518097791309251,0.06892520033354785,0.1297777777777778,0.18488888888888888,0.017155600824703115,0.9775985337242841,0.9455704835376212,0.08738877432548671,0.007636797878110846,0.0011125761705824417,0.7672918631276422,1.0394684831632328,0.0010187455480469055,0.001609552409180366,8.213400969870472e-06,9.357460117523505e-05,0.2721766200355906,0.7264261955573476,0.7251480542144673,0.03529632197350587,0.0012458303448573934,0.00040900150588683143,0.648334274441323,0.8097760846054165,0.00033477604917933867,0.0029078658776216263,-1.2350951637898668e-05,0.0009954640920758783,0.16144181016409354,8.0,0.8540000000000001,0.021727113637019624,0.0323276470763285,0.15999999999999998,0.2304,0.009339654423050582,68.57142857142857,875.0,106.63009743300167,59.76046581807566,85.45188206076723,0.7272727272727273,0.36363636363636365,54.6875,59.743581945491734,65.41806215721277,12278.315964550573,0.9132582038568473,0.08167265599477296,0.0,14642.514083864178,0.0,0.5695160983844134,-0.018725182964523916,19.22797791452363,369.71513468140853,-81.67886782896105,62.507959420547536,-0.003524221682642777,1.2484614674170207,0.0004577794154559278,0.12808825757635128,144.18682724950858
30,2,1,0.06737327509905451,0.09820847803833936,0.09510046673888978,0.009044098773954682,0.000608115620709187,0.005990664343652941,0.4967949786145151,1.9582935200867664e-05,0.015032141143172655,-7.169338199593818e-05,0.004369830411999362,0.4908043142708622,8.0,0.48700000000000004,0.0951162756195212,0.1309341080792432,0.14200000000000002,0.202,0.03184303001421841,1.007248279775451,1.0344351309797595,0.09095788706238035,0.00827333721885274,0.0010783745375748074,0.8993335383353426,1.3106097071521368,0.0017307021070023867,0.002324150194656897,-2.2820188013949103e-06,0.00010849812678393343,0.4112761688167942,0.7425623024289857,0.7640821011952283,0.05209571881195274,0.002713963918534047,0.0005543204599513679,0.7123703118502246,0.9171816168361003,0.0005770931428261255,0.005085742650181163,-2.4290052167631634e-05,0.001497423890558283,0.20481130498587574,7.0,1.7691428571428571,0.032820266624187945,0.0562285923127999,0.17333333333333334,0.248,0.01783912323561463,66.6802860061287,899.8161764705883,110.36302994222152,79.70843572879448,114.1637129975397,0.7692307692307693,0.46153846153846156,62.5,80.43910039303908,67.91663074320509,17163.0003208736,1.1843800187494848,0.3270325070311989,16085.248357206332,10655.366262525722,1.5095913139820614,0.3339223269026307,0.12680599884173252,19.77869602486177,391.1968164438828,-97.67534806077646,87.87504719457519,0.001225520001212195,1.2107251171292066,-4.995302829459332e-05,0.12379368400727442,185.55039525535165
31,2,1,0.086242391912448,0.12115857150994556,0.10287898260042225,0.010584085060897985,0.000526874230641229,0.005990664343652941,0.4967949786145151,-3.590956251038763e-05,0.017429356981579703,-2.5897115153498614e-05,0.0054851217805066774,0.4908043142708622,8.0,0.483,0.13013594840502168,0.16379332969792704,0.1417142857142857,0.19885714285714284,0.04120979803384296,1.0385644851953697,1.150688069992166,0.1833004729618678,0.03359906338804443,0.002429252331484765,0.9689325301435475,1.542437849930565,0.0023906571214317275,0.002282079961264284,1.3023560974673281e-05,9.682519412505176e-05,0.5735053197870176,0.7878323349160551,0.8098492775935799,0.07693166569990782,0.005918481187362374,0.0009715400224272374,0.7180486338882331,0.9799729476655102,0.0007715771805574509,0.005864572781117294,-7.4397764742651504e-06,0.001810012306856002,0.2619243137772771,7.0,1.358857142857143,0.04570576003668566,0.07117053663300289,0.19733333333333333,0.26133333333333336,0.02289750373708277,66.65380906460945,900.1736111111111,107.26371107391711,79.70843572879448,114.1637129975397,0.7692307692307693,0.46153846153846156,62.5,80.43910039303908,67.91663074320509,17163.0003208736,1.1843800187494848,0.1234949058351343,182193.0257659308,90471.55946648357,2.013815466875275,0.4059231191980452,0.15856928946668677,16.231195255899575,263.4516994351369,-97.67534806077646,87.87504719457519,-2.5956804813136633e-05,1.014664043644079,7.226666708090724e-05,0.10879346949078729,185.55039525535165
32,2,1,0.11975248626204792,0.13709362636531458,0.09508227959826686,0.009040639893602993,0.00019820893212515667,0.012848391988011368,0.4967949786145151,-6.720196245227761e-05,0.01726379476851432,1.1385380212693214e-05,0.005651613743656856,0.48394658662650375,9.0,0.11555555555555556,0.11860133218168015,0.13262148084908737,0.11399999999999999,0.162,0.02757183660093495,1.31250316210206,1.2979527541827147,0.22645870477606372,0.05128354496885239,0.0031762373520067767,1.0024228871187049,1.5953715145482006,0.0023603712078488987,0.0023038212490838475,-3.7145610556135744e-06,9.981360579511976e-05,0.5929486274294957,0.878196997210181,0.8634785515879054,0.0839534381033025,0.007048179769365045,0.0011091220899287389,0.7337381850224988,0.9950469793490105,0.0007518244493905503,0.005876600419741644,7.82768670398321e-06,0.0019349389835705828,0.2613087943265118,9.0,0.760888888888889,0.037757410838209764,0.054157220069740206,0.15466666666666665,0.2133333333333333,0.018099560279601613,65.02673796791444,922.6973684210526,85.65274056770748,93.19278852643768,138.99518501852262,0.8,0.5333333333333333,62.5,96.81337645754904,65.20200981053675,19831.073414828006,1.4848219669741505,0.11414222120762468,14649.035410563185,28311.779726817622,0.5174183873960864,0.5102221308063266,0.266651646887352,15.433531562923827,238.19389650376598,-97.67534806077646,87.87504719457519,0.003157262749303108,0.9127671975882958,-0.0002765798892884662,0.09045608621240242,185.55039525535165
33,2,1,0.1265972708572042,0.1482960735520231,0.10532328480146948,0.011092994321371452,-0.0003767353902952103,0.012848391988011368,0.4967949786145151,-9.004740038028786e-05,0.018404763195183787,1.0333501238737654e-05,0.005986934391042291,0.48394658662650375,8.0,0.47500000000000003,0.14411904865066047,0.16404180993725306,0.11657142857142856,0.1622857142857143,0.03502145958328403,1.543779836736356,1.4368638292023626,0.18076480572276837,0.03267591498799019,0.0023341652143217093,1.0130180766230787,1.5968379971089042,0.00223129523010898,0.002418659298164407,-1.222875486488311e-05,7.663793611306345e-05,0.5838199204858254,0.9197403395857566,0.9127969147302089,0.06315895996507723,0.003989054223870228,0.0006440039238580345,0.7337381850224988,1.0413187505515327,0.0007104656291200928,0.00628484168081137,3.1587085912186673e-06,0.002059264063564966,0.3075805655290339,8.0,1.201,0.04628675729371384,0.06635020906960717,0.17279999999999998,0.23359999999999997,0.023809378633617293,63.1390134529148,950.2840909090909,146.5479588241924,65.10208329999894,240.2391386722821,1.0,1.0,109.375,169.64461935174955,74.80443252241135,39867.34321459579,2.26784180604437,0.2871088142405972,0.0,57595.08541528301,0.0,0.48968744919618856,-0.04711184088210917,13.780802765155356,189.9105248521135,-97.67534806077646,87.87504719457519,-0.0004886519329113961,0.7750146629840365,0.00014821102399349638,0.07279108491554497,185.55039525535165
34,2,1,0.12560375740044577,0.13122373467462817,0.09174980185086419,0.008418026139672841,-0.00021572133280466554,0.00488895494565772,0.3789401141511266,0.00034255832985829435,0.014717286426535383,6.493321901018646e-05,0.0051674745097616305,0.3740511592054689,8.0,0.8300000000000001,0.11337133954150158,0.13882244888506154,0.11733333333333333,0.16533333333333333,0.03109017509153122,1.5698234455880107,1.5472688237836176,0.08273684113274685,0.00684538488062539,0.0009169232290625881,1.3143966170519832,1.7277934506642576,0.0017422844945855082,0.0021687739505162596,8.27163060043203e-06,7.347854821790059e-05,0.4133968336122744,0.9385555865795436,0.9435046171254143,0.040862115958107466,0.001669712520573821,0.0002304078545838321,0.8455387471088716,1.0413187505515327,0.0006857918451903584,0.005109388360781438,2.8913258375019153e-05,0.001797918896539787,0.1957800034426611,7.0,0.9440000000000001,0.04091428293704543,0.05826489092449776,0.13866666666666663,0.18666666666666665,0.014976626794640313,63.08871851040526,951.0416666666666,162.36639806998932,146.76044587088927,254.83603797343892,0.7777777777777778,0.6666666666666666,125.0,179.37481180357486,130.3933870182319,73479.61930193138,1.3756434732268614,0.2103934357248054,18377.79947614371,294812.25785813946,0.06233729767432843,0.5102221308063266,-0.11695962013093103,6.46623768747552,41.81222983092876,-27.403480971195243,18.018993875312205,0.0010296037262748402,0.42520596661864224,4.6140202121889215e-05,0.042474455365745116,45.42247484650745
35,2,1,0.12631451840921393,0.1433140773958522,0.12025140822594187,0.01446040118032212,0.000140483851540171,0.00488895494565772,0.5120532546688656,0.0005576056134185644,0.016307644996149794,8.395261476068086e-05,0.005078089360803729,0.507164299723208,6.0,1.0773333333333335,0.12875239162238714,0.17788509410188183,0.14,0.196,0.05217551726448945,1.5910727860942737,1.6417289228744534,0.10145936614055207,0.010294002977642602,0.0011672279941482447,1.5451218235421469,1.8279947706863267,0.0011437649558637662,0.0021137017931588445,-5.482649432351587e-06,0.00010733390745448701,0.28287294714417976,0.9704426684109758,0.9785245366789991,0.058851044932716756,0.003463445489672647,0.0004296400240959267,0.9018148490678457,1.143988500027803,0.0005610731781148001,0.005685004638035874,2.500492469237695e-05,0.001788702811427111,0.24217365095995724,4.0,1.552,0.03926113831623346,0.05911988270970131,0.096,0.144,0.009040290117617089,62.305721605465415,962.9934210526316,174.0820117982253,138.34129394171308,240.81691896861912,0.8461538461538461,0.7692307692307693,140.625,170.07105361179842,160.39257036165648,85696.78359647667,1.0603424661648522,0.2733734281027884,38483.67382921347,400575.4418797515,0.0960709764148893,0.5606888442367323,-0.10008447252985603,7.031858754570808,49.44703754423412,-33.72540978853772,15.787132620822426,0.001985196482395428,0.43218383279609285,4.506629175096429e-05,0.04221225323187683,49.512542409360144
36,2,1,0.1290949619803039,0.14777927511544384,0.12191587766006919,0.014863481225624956,7.063415204438532e-05,0.00488895494565772,0.5120532546688656,-0.00047435704539131496,0.016509566697876173,-5.3368304157363176e-05,0.004932372375194447,0.507164299723208,7.0,12342.853714285715,0.1281567433464296,0.20066137785186813,0.144,0.2112,0.054344030977566585,1.7306438780348086,1.7202067075069765,0.13868023277309,0.019232206961998424,0.0018714788382242548,1.5461759102119705,1.9340373925755512,0.0012282980804782032,0.0024555729943601147,-1.6228138959197926e-05,0.00014084812661801347,0.38786148236358065,1.0100988907717834,1.0058032323184325,0.06662848647897715,0.0044393552104792415,0.0006380806705189754,0.9018148490678457,1.143988500027803,0.00024779886985188657,0.005722148153528845,-2.293548987487686e-05,0.0016568239073190335,0.24217365095995724,3.0,2.042666666666667,0.030353439204862553,0.06282410836107037,0.12,0.184,0.007626579602596104,58.53658536585366,1025.0,138.20840242184988,112.5,163.57815410378,0.8,0.6,125.0,115.32901304528707,103.17233762011985,37381.069164886925,1.117828826074757,0.1952171791117618,0.0,52723.84779508553,0.0,0.2191143462498873,-0.0019842490527389807,8.043100454510727,64.69146492135066,-44.8281641573084,44.66781829039472,0.00037653798961809133,0.44989387137055165,2.2291835226325087e-05,0.04033137251455687,89.49598244770311
37,2,1,0.13181897285625982,0.15148969738247958,0.13130021078428294,0.01723974535199713,4.081141323107245e-05,0.00488895494565772,0.5120532546688656,0.0004162011632180617,0.018085312507691836,-5.833619623780648e-05,0.004964383627870433,0.507164299723208,7.0,0.9577142857142859,0.12019979485471456,0.2164690620965302,0.14079999999999998,0.2144,0.06138468154521974,1.8243694128558299,1.785714730777581,0.11615399660087675,0.013491750926356487,0.001332538083961545,1.5461759102119705,1.9340373925755512,0.0012257639968342121,0.0026013722573645054,-1.878430183217585e-06,0.00015545658967696969,0.38786148236358065,1.0280641590112616,1.0285537978865178,0.06083827953924956,0.003701296257295871,0.0004509711596531024,0.9018148490678457,1.143988500027803,0.0005379685708491704,0.006212295549869049,-1.907521396803773e-05,0.0016432463524874404,0.24217365095995724,4.0,2.282,0.03410782277700175,0.08352848376031338,0.13333333333333333,0.2133333333333333,0.018289225704593248,57.142857142857146,1050.0,131.6214980540793,109.65366287201718,149.46192554460148,0.6666666666666666,0.5,62.5,105.54106317270544,94.27299145780184,31257.81566577825,1.1195259802479842,0.09528346831824677,0.0,70013.96869420617,0.0,0.4963429208959337,0.17534864539761694,12.196936970723915,148.76527146781186,-53.782506868977976,44.66781829039472,0.0011362382456055475,0.7064611686420114,-8.691734469579515e-05,0.06279271767061381,98.4503251593727
38,2,1,0.07668190998491975,0.13678523755667843,0.12963039346350502,0.016804038909503126,-0.000778903676786755,0.00652790745336617,0.5120532546688656,-0.0004930834073628323,0.01677879724515733,-0.00012342621471766435,0.004308313565774178,0.5055253472154995,6.0,1.0853333333333335,0.11702350418813419,0.2168741786077548,0.12799999999999997,0.19199999999999998,0.05774129992856469,1.8260768889009977,1.8230939045272112,0.06262772882880374,0.0039222324182541755,-0.00035442828035492255,1.683044620152807,1.9340373925755512,-0.00019865302702380173,0.0026220032814294517,-2.3807383255525458e-05,0.00015739802839710124,0.2509927724227441,1.0293073887704411,1.0360105995685178,0.04947207758961306,0.002447486461032695,-0.00037294535742790494,0.9505543030575905,1.143988500027803,-0.00022359039149610975,0.005798596992643193,-4.4291720635990815e-05,0.0014390424760969101,0.19343419697021247,3.0,2.042666666666667,0.032090794307819394,0.0756082605393064,0.13333333333333333,0.2133333333333333,0.018289225704593248,59.07692307692308,1015.625,148.23176532039278,0.0,15.625,0.0,0.0,31.25,0.0,0.0,0.0,1.2206221387267866,0.1970055161544523,0.0,46728.23457381154,0.0,-0.05803929644976537,0.04615983463502786,13.346478809808188,178.12849662065898,-53.782506868977976,46.11917131227199,-0.0008603833378234905,0.7194473102131127,-3.851548675650711e-05,0.06370508796037112,99.90167818124996
39,2,1,0.07018652791249035,0.11672790445661238,0.10823849249054918,0.01171557125662667,-0.0002812888509417808,0.00652790745336617,0.45193735751989705,-0.0007448692578676424,0.015583265654360308,-2.168885020560764e-05,0.00412636674063574,0.4454094500665309,6.0,0.6120000000000001,0.09432480214267673,0.16849100708198564,0.12266666666666666,0.18133333333333332,0.03893937862274594,1.8228650829411512,1.8063781612107197,0.07489119236742671,0.0056086906942149125,-0.0008422709767163181,1.683044620152807,1.9340373925755512,-3.172328158765706e-05,0.002540281144405968,-3.0314253693141763e-06,0.0001427301165983264,0.2509927724227441,1.011970520607126,1.023925283522071,0.04692172899116198,0.0022016486515200506,-0.0003699639970801881,0.9505543030575905,1.143643548508142,-0.00025506776052390453,0.0052963350022097256,-1.8236368049457988e-06,0.001367258606359211,0.1930892454505515,4.0,2.282,0.04441785186133962,0.08953020946823065,0.14,0.21999999999999997,0.02159468265374514,60.11741682974559,998.046875,139.63136368527444,121.25465340440432,206.10790559801436,0.6666666666666666,0.6666666666666666,85.9375,141.01027469459254,60.06543018057703,26608.79594710919,2.347611167865907,0.12528188423953895,0.0,39442.929508548346,0.0,0.14452180958485558,0.0711115954757366,13.417821884714673,180.03794412992804,-53.782506868977976,46.11917131227199,-0.00453760675848735,0.7425335289726666,1.4282555490500801e-05,0.06645216243615251,99.90167818124996
40,2,1,0.06539817646366189,0.09895042160161231,0.10415483280151838,0.01084822919591225,-8.581146083057365e-05,0.00652790745336617,0.45193735751989705,0.0003042403998670413,0.01525520202050298,-4.4516079372280794e-05,0.0040576195521964025,0.4454094500665309,6.0,1.088,0.09104538443525005,0.1720158701018971,0.1248,0.18560000000000001,0.04192714008506216,1.8014766854369222,1.785231031775688,0.05474749363560005,0.002997288059380068,-0.00017850606951554205,1.683044620152807,1.8884744276107153,-0.00016086359859420935,0.002263812669009113,2.9903193401550435e-05,0.00012124558728150531,0.20542980745790818,1.004038936190999,1.0111281365005738,0.040582346367413605,0.0016469268366847284,-8.735738606499315e-05,0.9505543030575905,1.143643548508142,3.644215305202425e-05,0.0052059877219086705,4.555871618066679e-06,0.0013747339050879288,0.1930892454505515,4.0,2.282,0.04246580134716238,0.08761637875580561,0.13333333333333333,0.21333333333333335,0.024228543257517905,65.08474576271186,921.875,160.8692209529219,125.64935501890436,188.58194781491326,0.6666666666666666,0.6666666666666666,140.625,121.3664603930317,169.3309188230089,64563.16672735155,0.7167412852692812,0.21701388888888887,0.0,78855.82047497129,0.0,0.16481612353437147,-0.012162094795022105,12.646197643731025,159.92631484430814,-53.782506868977976,46.11917131227199,0.002124461117279473,0.7317946137973474,3.5629312874327704e-05,0.06683604305757003,99.90167818124996
41,2,1,0.06648735014862622,0.0841640540148272,0.07091862399049541,0.005029451228705271,1.8656594166181194e-05,0.012033278953336179,0.3968860494209008,-0.00020569429345683495,0.011642041594046205,6.132032941641965e-05,0.0037276276134367795,0.3848527704675646,8.0,0.47500000000000003,0.0717022036031329,0.09134239039373321,0.104,0.14933333333333335,0.017107340270464445,1.8014766854369222,1.7969949767934716,0.06867081511369583,0.004715680848379394,0.0007326871770717865,1.683044620152807,1.9095965874636724,5.1368638837435975e-05,0.0022974544863783456,-1.9775220723957284e-06,0.00011883823082737736,0.22655196731086535,1.0102461445130082,1.0101398822681822,0.03209912287389033,0.0010303536892731092,0.00024643360208652544,0.9505543030575905,1.087506048179724,-4.896649076000005e-05,0.004023533940031874,1.771255980787719e-05,0.0012669509518014575,0.1369517451221336,6.0,1.08,0.030007934487365755,0.042837207279212676,0.10400000000000001,0.164,0.009679565781172338,62.495479204339965,960.0694444444445,119.92997249423989,109.86497394529341,159.49750193968558,0.8,0.6,140.625,112.23928122542482,113.01963325015703,39851.8643339728,0.9930954295082078,0.3473428273706148,0.0,30494.936838861882,0.0,-0.10094527693634514,-0.13647523431532063,9.101303345201782,82.83372258138114,-27.565528563431183,46.11917131227199,0.0008202738404414961,0.5106244110442488,-2.9858819197190895e-05,0.04761530478058343,73.68469987570317
42,3,1,0.22913286525765397,0.2883222637678467,0.21265049441096529,0.04522023277322798,0.0011384470826699723,0.036856695449009685,0.8835884037380338,-0.0003209128106588935,0.026819439832501568,9.635222477076023e-06,0.008451120351215494,0.8467317082890241,8.0,0.46699999999999997,0.1103920047000331,0.10596040196501538,0.0736,0.1056,0.01234532317125113,0.675118620334794,0.6326156455909119,0.3937504715775373,0.155039433867533,0.005361248033286991,-0.2308469844171277,1.1547233479781336,0.0057785878310649096,0.005663232693006323,-2.129228625137898e-05,0.00027700235720506624,1.3855703323952613,2.853751838660963,2.7462931437725664,0.8456749596522548,0.7151661373828427,0.010693373037353068,0.9799230970937456,4.274098678576875,0.008925698650199479,0.046582954319242385,-5.154628877239211e-05,0.01403344868745852,3.2941755814831293,9.0,1.0782222222222222,0.1984111148484173,0.3462823720538036,0.07999999999999999,0.144,0.05494046447715417,80.25078369905957,747.65625,134.98001515849487,85.923294280422,156.87375497513918,1.0,0.9,70.3125,105.85865428721452,157.12256362470666,52253.42933227338,0.6737329880898713,0.26764804282368687,59521.95950365544,78561.08326678992,0.7576519700157587,0.18113529861702343,0.031531578520815,4.054297204166535,16.437325819712584,-28.68654695238356,11.868987439464597,0.00013417130914447715,0.2642904298501977,2.5276832665845667e-05,0.028511961332069017,40.555534391848155
43,3,1,0.2693263770440101,0.31597221958748645,0.20921582292822832,0.04377126056353579,-0.0002601481331014276,0.013642246170781422,0.8835884037380338,-0.0004194534815670665,0.029532083713157416,5.471185308022411e-05,0.009407957286388057,0.8699461575672524,8.0,0.10600000000000001,0.14179470989898418,0.13705323010740095,0.07200000000000001,0.10666666666666667,0.015639735889387916,0.9503500308722785,0.9043024103747288,0.228140886917393,0.0520482642834547,0.003064241706893392,0.4802757737380017,1.188233942131471,0.002989026123021617,0.00438880844443442,-4.541708924136074e-05,0.0002558461896782896,0.7079581683934693,3.3310738076836843,3.238582611029524,0.47762414826152044,0.22812482700254286,0.004609719261535827,2.2998751695600363,4.274098678576875,0.0042274722093070816,0.04943288474332587,1.1778507669250408e-05,0.015411711066358434,1.9742235090168387,9.0,0.7537777777777779,0.22320579796498208,0.30989905738462764,0.08266666666666667,0.14666666666666667,0.05832341864307263,82.30118443316412,729.0296052631579,135.8508077595534,106.58336059208322,171.16329922036442,0.9285714285714286,0.7857142857142857,85.9375,120.59512011625756,127.73777582769166,48394.82871238733,0.9440834501371858,0.2528353680560572,38974.65861000659,204732.1498880409,0.19036901938127515,0.05374425800052692,-0.09973106344447029,4.407091038330298,19.422451420131228,-28.68654695238356,19.082662879456684,0.001976137173295181,0.26391125760389306,-5.761984346538074e-05,0.027812874440170988,47.76920983184024
44,3,1,0.2707497358878417,0.3208567397269243,0.2082568815401581,0.04337092870883144,-0.0013646089683102705,0.013642246170781422,0.8835884037380338,0.0003604326637087085,0.031083648148730846,-0.00016260184075129284,0.009991486174488128,0.8699461575672524,9.0,0.10844444444444445,0.16702225612609228,0.16796131769045428,0.07466666666666667,0.10666666666666667,0.016889181845572258,1.13402674140549,1.067841146959425,0.21820125082598524,0.04761178586202452,0.0029310555509456165,0.5992596463072926,1.386705047964478,0.003277787020546418,0.002752338636692059,1.6766825706561463e-05,0.00013893964515519633,0.7874454016571855,3.518091288063581,3.515592883546192,0.35987356330412557,0.1295089815652085,0.0025742250407859153,2.452581544517863,4.274098678576875,0.005993177198565581,0.0513860262643105,-0.00024150772013775413,0.016339541453253743,1.821517134059012,9.0,0.7573333333333334,0.24251911997552827,0.3353636877423936,0.1413333333333333,0.20800000000000005,0.07414554266534139,81.70212765957447,734.375,149.52025215191227,123.1415668493426,194.87798889447612,0.8888888888888888,0.7222222222222222,109.375,137.71202788230514,137.53134287834084,59500.88560622723,1.0013137732838406,0.2432971631550776,73974.21605251833,108266.35852990401,0.6832613293453116,0.1642466316038517,-0.027937187085222037,4.257551805959255,18.126747380426917,-28.68654695238356,19.082662879456684,0.0006596591525740216,0.26754879610324517,9.970800672458599e-05,0.03142409619924064,47.76920983184024
45,3,1,0.2498621616600017,0.28307652446288134,0.1933358283914034,0.037378742539790184,-0.0004549294020370756,0.013642246170781422,0.8835884037380338,-0.003061588270259544,0.030400500513410596,5.195048069766101e-05,0.010392943105211735,0.8699461575672524,9.0,0.11733333333333335,0.21925924542720973,0.23213032938764722,0.09333333333333334,0.13333333333333333,0.03563917894292552,1.1902577544075579,1.255502475164316,0.16154588463216854,0.026097072841589908,0.002244401139374297,0.9539884109566996,1.5717428126869957,0.0025931311553958622,0.0019326216205796107,-2.180986450819993e-05,8.931558588310669e-05,0.617754401730296,3.7032056994974294,3.7620624703350756,0.37117966769379285,0.1377743457092745,0.0029427607985049596,3.138701283261559,4.940438812522212,-0.0007548542554036382,0.050035636240390494,2.0156035216551773e-05,0.01709434576540779,1.8017375292606528,9.0,0.7591111111111112,0.32979738284393023,0.3834605043559105,0.14666666666666664,0.19733333333333336,0.0809983763610987,87.64621968616262,684.5703125,153.16472997814262,127.26464183935772,196.71372362522143,0.9,0.7,93.75,139.0581108857912,151.10675680830755,66013.09307656666,0.9202640161366104,0.09135340063033846,116142.94123864803,200282.42156426056,0.57989583075509,0.054010022126014016,0.08649137473127405,3.3590657812786078,11.283322922956865,-13.66194996207958,19.082662879456684,0.0009612881438090452,0.19424311967517302,5.423980891244528e-05,0.025087059425422775,32.74461284153627
46,3,1,0.2028807986955583,0.23095428960696845,0.1692220836003611,0.028636113578047597,-0.0006757439956659981,0.013642246170781422,0.8348955456563901,0.00037002767261400685,0.028640674775884303,0.0001559805817748277,0.010044570056843678,0.8212532994856087,10.0,0.4056,0.20785396383042296,0.22832372446673657,0.10285714285714286,0.1462857142857143,0.03761134898617065,1.3881707459246235,1.3786049569657668,0.17530543795996711,0.030731996578335877,0.0024693747443658696,1.125625481742568,1.5970156907252162,0.0017001969981759522,0.001891670850589278,-3.851703743072236e-06,7.165740082944988e-05,0.4713902089826483,3.9054019764433767,3.8787434338889617,0.3466183333971649,0.12014426904702817,0.0029533379992664663,3.138701283261559,4.940438812522212,0.003414833466038113,0.04742025536148616,0.000255620176899557,0.01655340088144282,1.8017375292606528,10.0,0.9832000000000001,0.30881826966279374,0.3706964342328801,0.14399999999999996,0.19200000000000003,0.0787705002779592,86.57824933687003,693.0147058823529,158.29917100569403,151.55941346764837,226.3764116729143,0.8571428571428571,0.7142857142857143,109.375,160.04116644627092,132.31501548197568,66525.89295911766,1.2095465194430044,0.424682549794029,103518.4570101035,521432.1610467718,0.19852718098993136,0.1398242970047956,0.02612456190981549,3.4613603157467905,11.981015235426721,-13.66194996207958,19.082662879456684,-0.0009222210912898323,0.2013637839203717,-1.0137766335655874e-05,0.025254607359324152,32.74461284153627
47,3,1,0.20635017516695586,0.22643070007951985,0.1595491688540508,0.02545593728201841,-0.0006443449457825501,0.03960137037879245,0.8348955456563901,0.00010730944797751625,0.02721886608534274,-4.9865754264020766e-05,0.009264771784087458,0.7952941752775977,10.0,8640.3088,0.18922822324584887,0.22457147703431826,0.106,0.15999999999999998,0.04288279947898921,1.5279474660117751,1.476901514608092,0.11539844715794476,0.013316801606464968,0.0013535958979341864,1.1922815666836448,1.5970156907252162,0.0014751361142570738,0.0019098817841619856,-1.1226187728216597e-05,5.0297240044876185e-05,0.4047341240415714,4.000101159754694,4.033145374830272,0.27197244035412477,0.07396900831217797,0.0011663614449325148,3.496847061862247,4.940438812522212,0.0025975333194951035,0.045286369617004316,-0.00010405876514616118,0.015302756409857132,1.4435917506599645,9.0,1.3920000000000001,0.28563745681242064,0.37543106607325205,0.09599999999999999,0.14857142857142858,0.07270110126321157,86.3568215892054,694.7916666666666,157.58457826055047,117.70718104155753,189.44305707784596,0.75,0.75,109.375,128.2535559326719,131.07782605908216,52813.93392316701,0.9784534866702989,0.38413521559588976,0.0,51814.939492672725,0.0,0.08163601921015837,0.044605403611072944,2.8952044269094515,8.382208673596086,-7.85883273533619,10.400578223629495,-0.0019070849848331984,0.18475666265345833,2.5332841359352255e-05,0.02436361143402972,18.259410958965685
48,3,1,0.19532599583453095,0.22169009151268335,0.15681350032386446,0.024590473883822635,-0.000643113937678305,0.03960137037879245,0.8348955456563901,-0.0006548473639399762,0.026052886731769864,-5.06194610808122e-05,0.008806922029536788,0.7952941752775977,10.0,8640.302399999999,0.17270119414539306,0.22111128322002632,0.11733333333333332,0.17244444444444443,0.048211161354969355,1.5564272303871594,1.5442607355267177,0.04806133810478348,0.002309892220422313,0.00035579904085156374,1.3896364438847693,1.5970156907252162,0.0006617668732933305,0.0017508933164387106,-2.550634404753736e-05,6.0535468581992695e-05,0.20737924684044695,4.097502432272149,4.1360912860130945,0.2170606613411741,0.04711533070186787,-0.0004747594128785949,3.85018028368918,4.940438812522212,-3.0171488229197945e-05,0.04348115219182555,-0.00011958637842864282,0.014532842910646947,1.0902585288330315,10.0,8640.305600000002,0.24902339709282195,0.3219215575691731,0.10133333333333333,0.15288888888888888,0.06335887414957748,79.52662721893492,754.4642857142857,136.27044758568925,104.45110904000732,245.93869122964367,1.0,1.0,117.1875,173.70738433093092,39.35437828048806,21476.386407698377,4.413927799668866,0.09474182851729039,0.0,86708.66441388421,0.0,0.06719845018278595,-0.04635047362460629,3.2195006667947412,10.365184543491782,-10.928852593501636,9.046186867083481,-4.418451910165623e-05,0.1935998816291283,7.28466718906205e-05,0.021685364524870524,19.975039460585116
49,3,1,0.1963670952844659,0.2559901495590821,0.22409734041583634,0.05021961798145124,0.0014916458015797353,0.03846526257348115,1.048780496454829,0.0017203585784952072,0.02801292712001568,-0.00014870798286734755,0.008256396328656936,1.010315233881348,9.0,0.7502222222222223,0.14654174141383164,0.13805636132684987,0.1,0.14800000000000002,0.02478138519279608,1.551844799373812,1.5413778414902368,0.04712017446785387,0.0022203108418809873,-0.00048668317641487773,1.4301883439201917,1.5970156907252162,-0.00014324637503514056,0.002324289449850666,2.348581175927039e-05,0.00013844785533908494,0.16682734680502453,4.109751708646183,4.187758272644227,0.3210247906025615,0.10305691618141848,0.0016507276517258584,3.801774901767932,5.289559810233921,0.002595734153839903,0.04597161233847455,-0.00020976806775599804,0.013508973236801107,1.4877849084659895,9.0,0.7520000000000001,0.19391145414621785,0.21260637538228444,0.088,0.136,0.034965060488680776,67.28410513141426,891.7410714285714,159.6138229130656,141.70591521263324,336.0283307438526,1.0,1.0,101.5625,237.25802045994027,111.4784103802291,83092.44581728887,2.128286720726495,0.160294942694558,0.0,104180.13972919149,0.0,0.28306380967044914,0.03745310714932864,3.416175419234456,11.670254494981712,-12.655378133447917,9.08057755159656,0.0007705390471344667,0.18960749547983358,-3.866335721937978e-05,0.019494083562283666,21.735955685044477
50,3,1,0.2547800375745817,0.3313408654360852,0.23288093164878798,0.05423352832560746,0.001207513486980883,0.03846526257348115,1.048780496454829,4.374373527992221e-05,0.03229255894633998,-0.00024795556134764123,0.010313096809356227,1.010315233881348,10.0,8640.018399999999,0.16962699253557928,0.19383095795352884,0.1031111111111111,0.1582222222222222,0.034057981207635625,1.5507123625804797,1.5808815213228489,0.1144593966095991,0.013100953472233504,0.0009070342809761187,1.4301883439201917,1.9030667741141185,0.001433542253139502,0.0035924232100998615,2.8481945307153265e-05,0.00014266250961627775,0.47287843019392684,4.288811114215603,4.376684405559146,0.40265571516741555,0.16213162495698288,0.0034779571951963953,3.801774901767932,5.384247570629766,0.002433306511558155,0.0529313603821248,-0.0003499529883693009,0.01686375313855244,1.582472668861834,8.0,0.47500000000000003,0.2863857851335312,0.3355215912251981,0.10971428571428572,0.16457142857142856,0.06423994500601839,75.04885993485343,799.4791666666666,100.82531605523927,120.58163440406484,155.98936595699936,0.6666666666666666,0.3333333333333333,54.6875,99.36866681426517,44.50001950686215,13891.832467473212,2.233002769783999,0.41714464490562103,0.0,12317.677806241463,0.0,0.21495163773760767,0.0012839043373589357,4.583500141572178,21.008473547792175,-27.63018306521337,21.674124826824517,0.0010825944131694404,0.2401343336710131,4.7241573997654624e-07,0.022165011341494182,49.30430789203788
51,3,1,0.27020702985428735,0.3340052429704405,0.23250679985202669,0.0540594119774304,-1.0231933052188076e-06,0.03846526257348115,1.048780496454829,-0.0006176045893806998,0.03302780847647645,-0.00019766437987894455,0.01105057990105963,1.010315233881348,8.0,0.467,0.2007854813770084,0.21279438591333188,0.11599999999999999,0.16799999999999998,0.03968804272945786,1.5822525609182003,1.7109645908173685,0.23121291067550565,0.05345941006303935,0.0028526440329989353,1.4301883439201917,2.1303244067738683,0.0024150752791750013,0.003713624560647966,-1.1258016532821048e-05,0.00016295475099068556,0.7001360628536766,4.634023009723302,4.595076837121553,0.4496229119969113,0.20216076299258223,0.004692380284127853,3.801774901767932,5.440986249594213,0.0029686589222276422,0.054533237492177644,-0.0003951826177387837,0.018034490795815036,1.6392113478262815,9.0,0.43111111111111117,0.3139837653625281,0.36458169611471636,0.10800000000000001,0.158,0.05993830323551131,76.51307596513075,784.1796875,103.38195231260069,107.13099822763718,156.48419948192853,0.8,0.6,46.875,102.82271035926354,81.94563985121479,26470.66006225431,1.254767313379386,0.3986922892911251,0.0,5715.290822223671,0.0,0.27327804648556175,0.025802187943253056,4.614113827124858,21.290046409664807,-27.63018306521337,21.674124826824517,0.0003398564639701419,0.2397394717130932,-4.926426464218609e-06,0.02147023522003934,49.30430789203788
52,3,1,0.2194892606620675,0.3000758073194417,0.2526354915485788,0.06382469158999203,-0.0020373695538619487,0.02650131973579818,1.048780496454829,-8.925110303576982e-05,0.03182115089637907,1.186969016327595e-05,0.010582407450019374,1.022279176719031,8.0,0.46900000000000003,0.19521756299650514,0.2068365684515534,0.11599999999999999,0.16799999999999998,0.03914889116722508,1.9057806117614169,1.8346234656167482,0.2540723627658261,0.06455276552140954,0.003363910725644235,1.4301883439201917,2.1303244067738683,0.0018925245048417435,0.004072872747695439,3.742291214240319e-06,0.00015721148993922256,0.7001360628536766,4.776387170720499,4.742723310655593,0.37381717082422855,0.13973927720303048,0.0021825195817359606,3.801774901767932,5.440986249594213,0.0030051598020661486,0.0524050477528671,-1.107367520564358e-05,0.01729560777328402,1.6392113478262815,9.0,0.42933333333333334,0.3005176249326402,0.35001219318379767,0.09999999999999999,0.15000000000000002,0.056879433648240885,70.30514385353095,853.422619047619,159.01396069751868,126.96262964813059,186.98776757642273,0.8571428571428571,0.7142857142857143,62.5,131.93503279216594,187.70748776914732,77802.15013447062,0.7028757049608307,0.05582849486377848,109195.17972674067,92817.80945035824,1.176446420933275,0.1883239537217795,0.07001562831280038,4.238917206637597,17.968419084728286,-27.63018306521337,21.674124826824517,0.000473177255584184,0.21186693917970556,-8.667132179875078e-05,0.01767846064177898,49.30430789203788
53,3,1,0.15685965978361763,0.20742467168068124,0.1834573773153267,0.033656609291418144,-0.0020296426547185458,0.006006996794475839,0.8111164123469403,-0.0016036198320637245,0.023921710603092033,0.00014794838527697294,0.00893833413052182,0.8051094155524645,8.0,10799.646,0.18143880809499577,0.2558796833386101,0.13942857142857143,0.1897142857142857,0.04087391513739813,1.9703616525690046,1.9493149670195917,0.1460745467971815,0.021337773222001963,0.0009980164705289886,1.5422437732899648,2.1303244067738683,0.001552819014983553,0.003804114548890158,-2.824163216605206e-05,9.972587590626284e-05,0.5880806334839035,4.744299374935016,4.778893189760157,0.2360166851092946,0.05570387564997993,-0.0016989956424766242,4.40115006566333,5.440986249594213,-8.159878027182803e-05,0.04022829294893516,0.00020520630258905233,0.014551747577205013,1.0398361839308832,9.0,9599.696000000002,0.28429743330376467,0.33923384225283887,0.11,0.164,0.05409239525525286,70.16611295681064,855.1136363636364,151.21003843376437,119.872514125871,162.27233364889142,0.7857142857142857,0.5714285714285714,54.6875,114.64612534282372,192.81244314986097,69445.53243392381,0.5945992046463335,0.05318017443097213,119621.50934114197,153415.1298208632,0.7797243301936341,0.1825368188573095,-0.031076679033693433,3.9769087609991183,15.815803293311543,-27.63018306521337,21.674124826824517,-0.001236752270743177,0.1998158715330737,3.3564994339139915e-05,0.016960666896890936,49.30430789203788
54,3,1,0.09610077329092159,0.1273271015981205,0.10828243404742477,0.011725085523234894,-0.000745002505490147,0.006006996794475839,0.4960793532981621,-0.0005400535262665603,0.017371773171642457,-2.671913510213722e-05,0.006173008101239772,0.49007235650368625,6.0,14399.490666666667,0.1673535774036294,0.22244396199304614,0.16266666666666665,14399.586666666664,3804.2097661181488,1.9703616525690046,1.9902862367099479,0.08313557552964054,0.006911523918644567,-0.0009096237593182224,1.8603195554259833,2.1303244067738683,-0.00019488138798223937,0.00276147245848009,-3.442331420234641e-05,9.188975809649529e-05,0.270004851347885,4.692273597485464,4.714607268430738,0.25063313722230485,0.0628169694738947,-0.0027200959926741773,4.298894525067528,5.440986249594213,-0.0012289806372629923,0.029728074758225427,-9.945996659030306e-05,0.009999156597287227,1.1420917245266855,7.0,12342.432,0.23920228237236024,0.34222095169955075,0.11200000000000002,0.1664,0.047492835778632114,66.6802860061287,899.8161764705883,152.53476651463671,126.31923446931422,207.74656953311595,1.0,0.8888888888888888,125.0,146.77071422464476,191.43724947384482,88270.52835630246,0.7666779303820773,0.06540650140623978,78036.21109778571,172816.43409714318,0.4515554987896589,0.2655776693670412,-0.005448006191118038,2.2245828782153456,4.948768982048871,-9.634296492814272,5.807163567167501,0.0003164946242115102,0.12179795869308897,-5.744459611259497e-06,0.013511209301344399,15.441460059981772
55,3,1,0.04635927040344369,0.0732371210350726,0.0743228250227913,0.005523882319368454,-0.00034118184052866807,0.002661043543309219,0.3763148155713314,-0.0002803295390436208,0.011772171466755767,3.639515328321246e-05,0.0035462602758479962,0.3736537720280222,5.0,0.1376,0.11300050641581103,0.15211160488705872,0.148,0.20799999999999996,0.039294757913371677,1.9165186644464256,1.9181074174006723,0.11153885619245277,0.012440916440720658,-0.0015496456950982761,1.6746080241367078,2.123140153409059,-0.0018783614092224333,0.0012667029157481734,-6.747323686496128e-06,5.778839987502964e-05,0.4485321292723512,4.513961041398189,4.506772261290928,0.24963594332648237,0.06231810420050272,-0.003109650032597517,3.9947022695647108,5.002651987477724,-0.003557792984270412,0.019757631323916246,5.986952733201776e-05,0.00577076314262899,1.007949717913013,5.0,0.128,0.16717117116794925,0.2300466416877393,0.11839999999999999,0.176,0.048535737746873454,67.48681898066783,889.0625,147.31483345627487,136.2653692911576,227.59284392125923,0.9166666666666666,0.75,109.375,157.85847446389894,168.95001649279783,83786.87883041239,0.9343501571698769,0.056268287193337825,60810.36575195782,236267.92240596877,0.25737884826984697,0.28252027592462015,-0.03268749980745408,2.079218412049339,4.323149205004975,-7.672350626444948,6.090098992654565,8.727278370554842e-05,0.11422925758712517,2.5933021874023183e-05,0.01185750799637331,13.762449619099513
56,3,1,0.02688105605914405,0.05484381147791008,0.07563217888116441,0.005720226482312451,-0.0005624413609736517,0.0008481322236758839,0.3763148155713314,-9.600505579625863e-05,0.010827099394966988,8.669875676552736e-06,0.003177706417970656,0.37546668334765554,4.0,0.866,0.1045371745717827,0.1518842203847633,0.17066666666666666,0.24533333333333332,0.04349024806562876,1.8589383900498175,1.8000440559534627,0.14159138169739946,0.020048119370978664,-0.0019506917514174147,1.5108147335360624,1.9998662476259486,-0.0020502666059590002,0.0013257856554342504,-3.388340704443595e-06,5.680737559737164e-05,0.4890515140898861,4.321820532552831,4.28246004828963,0.31269430324353825,0.09777772728096187,-0.004130471625431289,3.722606904789959,5.002651987477724,-0.003524125378743656,0.018098628558836222,-4.502909330963978e-06,0.005130440864116576,1.280045082687765,3.0,0.144,0.2068690607247182,0.30092681456148007,0.1386666666666667,0.20266666666666666,0.06837573236999754,77.57575757575758,773.4375,164.53530357391114,119.42311966456356,202.92458061227245,0.9166666666666666,0.75,148.4375,142.52906547511049,194.346569799182,87022.22637149532,0.733375771038231,0.05879931792791203,88361.24972170705,123705.84573701312,0.7142851592442501,0.31732367143470863,0.0009661765284445881,1.9093793083911703,3.6457293433123437,-7.672350626444948,6.090098992654565,-0.000245696267673607,0.1022899457755997,1.1486052368626416e-05,0.010845226194065414,13.762449619099513
57,3,1,0.012316046703783449,0.036376668372706956,0.06996048434790013,0.004894469370192779,-0.0005833234272837826,0.0005920297370767464,0.3763148155713314,-0.00044188349701731696,0.008891335618654149,-0.00017848929599787784,0.0024774941236836625,0.37572278583425467,4.0,21599.886,0.08405055679181692,0.11598150226009303,0.16,0.23199999999999998,0.044187135248855085,1.6730792365233,1.666890237359762,0.19575981795290828,0.038321906324955794,-0.0028063563834603467,1.324629951486531,1.9256041475605081,-0.0024459472723677043,0.001252669553892325,-9.063631438898286e-06,5.135210265397931e-05,0.6009741960739772,3.992945384972944,4.033015670624094,0.3918057997168739,0.15351178469177912,-0.005578564667303845,3.407464677080092,5.002651987477724,-0.004760735793755313,0.014823473661001629,-0.0003094847242393515,0.004039873011674119,1.5951873103976317,2.0,43198.200000000004,0.2409365027946393,0.8165214869284367,0.096,0.128,0.007388453669321166,81.39650872817955,737.1323529411765,154.42270619498063,73.96447109723613,117.67013708122502,0.8571428571428571,0.5714285714285714,109.375,83.19038014992957,181.71068740119915,47490.140326595225,0.45781776151808545,0.07984031936127745,0.0,96646.07699585595,0.0,0.23337635490121889,0.020924912285765672,2.19353358178833,4.81158957443314,-9.220461638737708,10.27832656917113,0.0002917921972919353,0.11450934028904011,-8.046348244371034e-06,0.011524068508303034,19.498788207908838
58,3,1,0.007778045670276614,0.016008313505327228,0.020039874246372685,0.0004015965598104312,-2.7925652139134768e-05,0.00021085617458302814,0.09655330317153124,-2.4305274972437325e-05,0.00333548106879666,2.7267493265501234e-06,0.0011795734399823949,0.09634244699694822,4.0,0.8460000000000001,0.04123867306550506,0.046410855604592405,0.16799999999999998,0.24,0.013735203320670655,1.509075542443218,1.5073772671320678,0.19527733780414244,0.03813323865987316,-0.002808553500590506,1.193220534454174,1.8575572246736516,-0.0027797749868425574,0.0007340392031105923,-1.9832538732666993e-07,4.3752963590956136e-05,0.6643366902194776,3.7188615218809256,3.7370966887584,0.3261342560843952,0.10636355299172189,-0.004664507052610818,3.1932257031983733,4.333950516942376,-0.0046026348990914215,0.006046861901288684,8.753721795642008e-06,0.0020515512635999283,1.1407248137440025,2.0,0.128,0.09549088081636725,0.10406011810564286,0.112,0.16799999999999998,0.01933561279431085,82.53838280450358,726.9345238095239,173.76658288049438,138.351735976218,252.76416588925792,0.9230769230769231,0.8461538461538461,93.75,177.56354209968936,198.61574281793054,110794.28048662531,0.8940053773202683,0.1966439433665443,25325.34094494441,288391.49404289224,0.08781583877497369,0.13477807151742033,-0.013794773021968115,2.107536414857568,4.441709739950691,-9.220461638737708,10.27832656917113,7.300889494586838e-05,0.1057549029353892,-7.580203311463056e-06,0.00921549006553515,19.498788207908838
59,3,1,0.003700143914488343,0.01092166766773189,0.01823398776228974,0.0003324783097153319,-3.0197373595979933e-05,6.963825416367012e-05,0.09655330317153124,-1.3260577466260176e-06,0.0028048608715502315,-4.065637598942755e-06,0.0008960429720084201,0.09648366491736757,3.0,1.0853333333333335,0.03214926003263376,0.043482267365541644,0.16799999999999998,0.24,0.013804028788192486,1.324037045634568,1.3461659840790499,0.17833832076073494,0.031804556651758784,-0.002562716676682911,1.0649171624446239,1.6715504489098922,-0.0025377037975846534,0.0007619939054491523,5.2332611310805055e-06,4.4179127792115043e-05,0.6066332864652684,3.4566729572063823,3.4636490384035756,0.29786029101987976,0.08872075296644746,-0.004266512135796507,2.9920176192190286,3.9911885003811767,-0.004167247919706915,0.005095320256402098,1.3302217207833885e-05,0.0015499094963655332,0.999170881162148,1.0,0.16,0.10361064856302704,0.15039794191971412,0.128,0.208,0.03128277191930053,81.0126582278481,740.625,200.08136365822114,159.2818104902792,389.0145373477155,1.0,1.0,78.125,272.66883577904906,181.77922385269937,155714.70283557507,1.5,0.36026299198414846,0.0,246210.79242527072,0.0,0.11794738151782727,0.06526706461771173,2.1627463711368238,4.677471865865499,-11.772719604161388,10.27832656917113,7.759607237508998e-05,0.09814359864108647,1.6913164803058443e-05,0.007890881651197884,22.051046173332516
60,3,1,0.003270456831865551,0.00938738552706843,0.018120781290908987,0.0003283627145929572,-8.116994713755619e-05,6.963825416367012e-05,0.09655330317153124,-7.315267260267581e-06,0.0027313833007122394,6.335551374911097e-07,0.0008844631558185094,0.09648366491736757,2.0,0.128,0.04121772269367277,0.05243897527333413,0.176,0.24,0.02147153320439537,1.191818341459502,1.1994524348044167,0.1554631098078107,0.024168778511115405,-0.0022370641003438547,0.9437878377055297,1.5073363513503737,-0.002359490938370698,0.0007696143854164316,6.841043259169186e-06,4.0640717595097165e-05,0.563548513644844,3.1911647348666046,3.219717016826869,0.26627341769085155,0.07090153296876671,-0.00381102278839516,2.780643118759451,3.715116138971892,-0.003918185294383018,0.00500543737624752,1.620061751494197e-05,0.0015514657447130184,0.9344730202124407,1.0,0.16,0.10361064856302704,0.15039794191971412,0.128,0.208,0.03128277191930053,79.33884297520662,756.25,186.6124828354202,0.0,484.375,1.0,1.0,46.875,0.0,0.0,0.0,5.326380665593757,0.5291005291005291,0.0,0.0,0.13431462973790206,0.0532948000430139,-0.006924908037255982,2.3047319987623323,5.311789586119016,-11.772719604161388,10.27832656917113,-0.00014241273894567921,0.10462821193450869,3.426209617081722e-06,0.008308347340927169,22.051046173332516
61,3,1,0.0029021622083123177,0.008387836056405739,0.018132503002289267,0.00032878766512802924,-0.000124997694182007,6.963825416367012e-05,0.09655330317153124,-0.00016370313452590343,0.0022514147685012676,-7.101515997014356e-05,0.0006377597633748401,0.09648366491736757,0.0,0.0,0.0,0.0,0.0,0.0,0.0,1.0640212405223277,1.0732147505952425,0.14323802809526204,0.020517132692619077,-0.0020607006649624245,0.8524174596482375,1.3234441397826051,-0.0019681318248926305,0.00047814531349932494,-1.3158833564634367e-06,2.4553993216839076e-05,0.47102668013436766,2.9920960444513547,3.010640531685413,0.2519636319411673,0.06348567182098401,-0.0035954322986157987,2.6350020867450987,3.5618306309206584,-0.0035045755285599924,0.003977178070350026,-0.00012296680957877792,0.0011857421411293392,0.9268285441755597,0.0,0.0,0.0,0.0,0.0,0.0,0.0,57.744360902255636,1039.0625,189.81856400147836,0.0,484.375,1.0,1.0,117.1875,0.0,0.0,0.0,5.274608583724585,0.3209242618741977,0.0,299540.98709976324,0.0,0.2604817916674553,0.003937685415693925,2.585294681419131,6.683748589774047,-11.772719604161388,7.474026450619287,0.0007080911420469329,0.11315096128624084,4.149922417832326e-05,0.008697171362277212,19.246746054780676
62,3,1,0.003023086845565815,0.00543202215920916,0.007708523937528161,5.9421341295444664e-05,5.001686643102183e-05,4.161437117632388e-05,0.036227162180908094,6.557270688500556e-06,0.0009682317886799704,-9.174488464306727e-07,0.0002834908340641433,0.03618554780973177,1.0,0.176,0.019394912749381252,0.03610207370173103,0.256,0.352,0.012707929943009323,0.9428494133559359,0.9579746689806241,0.12178254780527607,0.01483098894994435,-0.001752131814947097,0.7698662529411686,1.19041614846483,-0.0017604409806705839,0.0003703527038675523,6.848511575135649e-06,1.1499442968514987e-05,0.4205498955236613,2.7787807411494514,2.816183875996051,0.19513306096762836,0.03807691148259617,-0.0027980649391851843,2.500503104234039,3.189103766534836,-0.002883407426199506,0.001947067501123873,6.617873710000148e-06,0.0006780817752596618,0.688600662300797,1.0,0.144,0.02647278601657277,0.035382767689520644,0.11199999999999999,0.176,0.006227367113355633,59.33774834437086,1011.1607142857143,214.19268814098493,39.0625,353.7259819584928,1.0,1.0,171.875,248.59222776089558,27.621358640099515,21571.604829641827,8.999999999999998,0.2826855123674912,0.0,90177.76156211528,0.0,0.3177328754865564,0.012466285116719052,2.8890895886458883,8.346838651222068,-12.075403144223376,7.474026450619287,-0.0005455032425510857,0.12776195725011125,1.2099693749674638e-05,0.009832859017751864,19.549429594842664
63,4,1,0.3240773783045957,0.4003380290826209,0.2575441306518857,0.06632897923323557,-0.001806564148258904,0.05978837396091619,1.1419039002399871,2.9916042941377277e-05,0.03910131538511127,0.00014161109013657237,0.012731108770536388,1.082115526279071,8.0,0.48900000000000005,0.3060748601542109,0.4074745094010313,0.12342857142857143,0.1782857142857143,0.07519931912697557,2.4412580124648784,2.531174425324264,0.18459950093630445,0.03407697574593267,0.0023616554306326574,2.3000758037119935,2.8278115945747846,0.002052777910241707,0.003297018890033187,-9.570223847820322e-06,0.00018269444241386377,0.5277357908627911,2.5129766552503394,2.4962416451377987,0.18992020701459036,0.036069685032464854,0.00038190040648209436,2.1394693017454385,2.927106538348002,0.0014308105399074612,0.02755077593309228,8.348378108338078e-05,0.008750510921851005,0.7876372366025635,8.0,0.8460000000000001,0.21349558753533504,0.29955384406294827,0.11466666666666665,0.17333333333333334,0.05407364742066458,69.50226244343891,863.28125,126.15433798402455,38.866696761977344,97.89034442298178,1.0,1.0,70.3125,67.82716935228648,50.85631471207634,10836.734956505526,1.3337020139247375,0.2896451846488052,0.0,59404.85377518822,0.0,2.5325314427777856,-0.07939645257059619,29.50553172984196,870.5764026607105,-87.44046446657391,80.01232262557683,-0.0018066342030722724,1.1347558232215675,-0.00038225471735092167,0.09351524968811066,167.45278709215074
64,4,1,0.22612277449961538,0.28034454887005306,0.1769531428124091,0.031312414751188844,-0.0003965229097812216,0.05090439203770954,0.797274933914907,-0.0013700960005639637,0.03417138005322274,0.00018316993301477675,0.01066056558943555,0.7463705418771974,7.0,0.13942857142857143,0.3057399237324613,0.38067944705965345,0.1417142857142857,0.19657142857142856,0.07983577722552591,2.7620580933539656,2.6614102746633077,0.21855252992563926,0.04776520833689744,0.003063056713646755,2.3000758037119935,2.9333059781581756,0.0025504010210110005,0.0024722971544072006,8.501872618954058e-06,0.00014128599714011614,0.6332301744461821,2.527465965874806,2.5032290973388474,0.18623137094389156,0.034682123523641334,0.0018393277690536773,2.1394693017454385,2.940036402009605,0.0008410770016660259,0.023958241386681827,0.00013373397894337613,0.007414715037631687,0.8005671002641663,7.0,0.5542857142857144,0.21482881749612354,0.29164350771963227,0.14133333333333334,0.20266666666666666,0.06218845315941757,68.87892376681614,871.09375,137.71955127972026,33.14563036811941,70.74519639169857,0.75,0.75,46.875,44.879395676078346,130.84479862847058,18448.17187491727,0.34299717028501747,0.1435544071202986,0.0,2657.2769085225927,0.0,2.7846484890202428,0.19984774414269424,27.52647314704821,757.7067239151663,-87.44046446657391,80.01232262557683,0.011942493775637086,1.105841746486117,1.5562852730263467e-05,0.09615672812179935,167.45278709215074
65,4,1,0.21051353127168537,0.25801333042321184,0.17943180306303408,0.032195771950451445,-0.0009397714421981243,0.05090439203770954,0.797274933914907,-0.0011608924623654807,0.03279405229310749,-0.0002904378768444691,0.01034438957921116,0.7463705418771974,6.0,0.14400000000000002,0.30367030395268835,0.3840612140352148,0.136,0.19199999999999998,0.07892802415998877,2.8300455807212925,2.803281658568659,0.13576663960482785,0.01843258042958721,0.0017390441270504486,2.443400327535464,2.9333059781581756,0.0017840883692372069,0.0028129852853883684,-2.865982551932868e-05,0.00012570218665897785,0.4899056506227115,2.559472214981385,2.5857034908143954,0.13189872759743299,0.01739727434182183,0.0005508547234325903,2.3420044437290883,2.940036402009605,0.0004211195868369266,0.022926333462152636,-0.00021176877453001988,0.007171539363733688,0.5980319582805165,6.0,0.6253333333333334,0.21291570002787422,0.2872709784909915,0.14400000000000002,0.20533333333333334,0.06326582925324598,71.8716577540107,834.8214285714286,105.59710868316849,33.14563036811941,70.74519639169857,0.75,0.75,31.25,44.879395676078346,130.84479862847058,18448.17187491727,0.34299717028501747,0.1712035610340695,0.0,16348.992612243506,0.0,3.056226740789879,0.7176158164890597,22.489875608750854,505.7945048970866,-87.26440216067678,78.51955574606114,0.010689418525507885,1.0093857556458343,-0.0005551074656174783,0.09087158551248387,165.78395790673792
66,4,1,0.18190161313374864,0.21644957548139107,0.1408129995546184,0.01982830084356896,-0.0003224769293686901,0.05090439203770954,0.6387808886142703,0.0009287159865745171,0.02726127531854882,-0.00010876106855324977,0.008858827389167174,0.5878764965765607,7.0,0.5428571428571428,0.2275790619632523,0.2704024329368449,0.13028571428571428,0.1851428571428571,0.05181353300624554,2.878810992190603,2.866195641080186,0.05851401983128421,0.003423890516815922,0.00042629290823730973,2.7616817585195066,2.9333059781581756,0.0005578963513004982,0.0019168870616676765,-3.998137111300518e-06,0.00012098066407396037,0.17162421963866903,2.56373766386227,2.6004216210375537,0.10180246572149493,0.010363742026976151,7.082705533949661e-05,2.4527106148066253,2.940036402009605,0.0010274421564312778,0.019126618989812237,-7.339490609579122e-05,0.00619566752634086,0.4873257872029795,7.0,0.5497142857142857,0.15612709243671752,0.19646193180755306,0.128,0.18742857142857142,0.038522469355468034,75.29411764705883,796.875,118.3105905375057,61.88663874122992,115.61444208553705,0.75,0.75,62.5,81.70508071621832,167.80969940633278,43074.07853189373,0.48689128819889266,0.13950892857142858,0.0,42727.08892250974,0.0,3.2791935457586945,0.03812673639671059,20.769638597947978,431.37788748937044,-87.26440216067678,78.51955574606114,0.0007223245988164845,0.9650895359896933,5.430020368147025e-05,0.0901557811519793,165.78395790673792
67,4,1,0.12857831930620472,0.17271347450781077,0.13987255974939278,0.019564332970847455,-0.0006342515234324372,0.003982318765104617,0.6387808886142703,-0.0007348481008661339,0.02422296173528436,-0.0001592129346072231,0.007430454016969649,0.6347985698491657,5.0,1.2896,0.22845751162770994,0.33057784019452074,0.1408,0.20800000000000002,0.07085148850085148,2.897664532491696,2.8897373421594144,0.0343159745048168,0.0011775861062152365,-0.0002581196164813355,2.8135215613593116,2.9333059781581756,-7.178722532805067e-05,0.0019288712612791324,-2.4612071011880418e-05,9.511631873828688e-05,0.11978441679886398,2.5586187257028836,2.5864785181178096,0.10778220289302118,0.011617003260472384,-0.000616183110422563,2.4173581992861957,2.940036402009605,-0.0005243602119008354,0.017106835449509705,-0.00013396632433803162,0.0052648197031566705,0.5226782027234091,5.0,1.2896,0.15807714679896065,0.23430775892442623,0.13440000000000002,0.2048,0.050978505368369155,74.74452554744525,802.734375,121.51828304923657,52.40784322265132,100.65702130254004,0.75,0.75,62.5,70.96055517415996,165.174800873953,36822.279418709084,0.4296088434718978,0.1558117793705204,0.0,27667.338018268863,0.0,2.6652379324666007,-0.08159226703208398,20.244937456074773,409.8574926003793,-87.26440216067678,78.51955574606114,0.007748567409219929,0.953683681853342,0.00010745210397631871,0.08696544423089125,165.78395790673792
68,4,1,0.15314404072324805,0.22277478028971037,0.20066030639155816,0.04026455856115399,0.0008781579661901089,0.003982318765104617,0.934625862633399,2.520846294317332e-05,0.02810186565603272,-2.3450464763680033e-05,0.008321755587186298,0.9306435438682944,6.0,1.564,0.22352205597377792,0.3437387604974847,0.13333333333333333,0.20266666666666666,0.07618043779988244,2.885647852279095,2.882401912144476,0.04325377437589765,0.0018708889977610598,-0.00010987470070141379,2.8074865305320817,2.9827606961937647,0.000241958969490839,0.0022889008950905416,9.490117861850796e-07,0.00013915570453339424,0.17527416566168297,2.57145082796783,2.615959079164535,0.14141474109678723,0.01999812899947136,0.0005291568021390077,2.4173581992861957,3.060208661343094,0.00018563656235536704,0.019391326225228336,-1.590996345310902e-05,0.0057394077874814535,0.6428504620568982,6.0,1.5666666666666667,0.1573590736979075,0.2410982726341154,0.1248,0.19519999999999998,0.037508749907440624,-1.0,-1.0,-1.0,-1.0,-1.0,-1.0,-1.0,-1.0,-1.0,-1.0,-1.0,-1.0,-1.0,-1.0,-1.0,-1.0,-1.0,-1.0,-1.0,-1.0,-1.0,-1.0,-1.0,-1.0,-1.0,-1.0,-1.0
69,4,1,0.11553904901603182,0.198134975875878,0.20193094813873375,0.040776107816207975,-6.57350593404914e-05,0.003982318765104617,0.934625862633399,-0.0005441556649642703,0.025786065794334765,6.297707842793075e-06,0.007417283636766082,0.9306435438682944,6.0,1.5506666666666666,0.18305547094710226,0.2844805602450596,0.12000000000000001,0.18399999999999997,0.06325171950032733,2.861803977599652,2.8663665513999184,0.05764006285987966,0.0033223768464908784,-7.578287201760563e-05,2.7448981350994006,2.9827606961937647,-0.0005195206430739424,0.003089033544190226,8.974295205487851e-06,0.00018240533304697434,0.2378625610943641,2.5383022138203124,2.5879160686305633,0.1476242950814754,0.021792932498302522,-9.779331343509681e-05,2.3948446008868913,3.060208661343094,-0.0007571211818900256,0.01780464152518423,4.860846715112888e-06,0.005143855566778615,0.6653640604562026,6.0,1.5506666666666666,0.1249779880731398,0.19723015221172635,0.0992,0.16319999999999998,0.02600448025944182,75.9322033898305,790.1785714285714,146.77930556047855,115.76099359840036,238.33460809682396,1.0,1.0,46.875,157.89069157525122,161.96158130693973,80337.51759255353,0.974865090234124,0.18086453246518358,0.0,15369.780720401344,0.0,2.1439345108431285,0.004198729353165179,24.76124739105018,613.1193723607893,-134.79298964344596,107.36299119533162,-0.0033574346053728533,1.1091785254981272,0.0005812001815083301,0.08823708766591092,242.15598083877757
70,4,1,0.09956787126338011,0.17713598175953865,0.19786337410467325,0.039149914812085886,-0.00045075006698412493,0.003982318765104617,0.934625862633399,-0.0006007882254364566,0.02422116598425677,0.0002073953484105265,0.007179423179633613,0.9306435438682944,6.0,0.5826666666666668,0.16007514604330045,0.20513503739407624,0.12266666666666666,0.17066666666666666,0.04558785574402055,2.83003527410378,2.832139739726313,0.08453856386605278,0.007146768780534686,-0.0008067438423058497,2.6816779082793394,2.9827606961937647,-0.0009388211757810127,0.0029255463257171735,-9.082388279725574e-06,0.00017529101698868376,0.30108278791442533,2.490027067734086,2.5498373039421787,0.15641143060365711,0.024464535623482647,-0.0008678780539140309,2.35560332062204,3.060208661343094,-0.001065385255902219,0.016622526770385972,0.00013815217995589204,0.004961675786534103,0.704605340721054,5.0,0.6864000000000001,0.12504177110798195,0.16779530437838402,0.108,0.15999999999999998,0.012777981656821629,-1.0,-1.0,-1.0,-1.0,-1.0,-1.0,-1.0,-1.0,-1.0,-1.0,-1.0,-1.0,-1.0,-1.0,-1.0,-1.0,-1.0,-1.0,-1.0,-1.0,-1.0,-1.0,-1.0,-1.0,-1.0,-1.0,-1.0
71,4,1,0.13011737211807867,0.20272815630126514,0.19223202894446814,0.036953152952106834,-0.0011678370863924914,0.014640722184540312,0.934625862633399,0.0003309040675374983,0.02444350047492173,7.797263780821503e-05,0.007537122513767142,0.9199851404488587,8.0,0.463,0.14263056399342278,0.1736541091344089,0.11199999999999999,0.158,0.03714043635438237,2.7455159783144722,2.781483862328566,0.1021809786609293,0.010440952400105289,-0.001220381480480944,2.6562382252298087,2.9827606961937647,-0.0006546101281351126,0.0028710826737000108,4.157595474350388e-07,0.00017114055009992944,0.32652247096395604,2.482355850423072,2.5325640144267654,0.16245686549709534,0.026392233147141328,-0.0016478289223772781,2.3226572414931037,3.060208661343094,-0.00022189746740751044,0.016762092460270453,5.3515223748365943e-05,0.005192960389215969,0.7375514198499902,7.0,0.5200000000000001,0.10673676633072228,0.13447914936048613,0.09600000000000002,0.14666666666666664,0.010863786971622975,62.52374491180461,959.6354166666666,195.41230089073136,175.94610325324058,331.7508006772553,1.0,0.8,148.4375,231.18664672727095,198.45595386634284,144137.42233230756,1.1649267367557627,0.1737619461337967,0.0,195379.87524454715,0.0,5.096654456778115,0.43949713845634386,27.496679952489963,756.0674084096635,-134.79298964344596,107.36299119533162,-0.0006242010377413144,1.1922822777111517,-8.14296645353137e-05,0.08986747284241409,242.15598083877757
72,4,1,0.1070024422552347,0.13261867462327911,0.08568053430327031,0.007341153958493881,0.00021375546425110288,0.022843996436165272,0.39383581634664694,-0.0002013920911062257,0.01354248846709432,-1.5471460427920503e-05,0.004584611713472599,0.3709918199104817,9.0,9599.683555555555,0.08983329943089935,0.09851706402508185,0.11733333333333335,9599.742222222225,754.4352623625471,2.68108397948044,2.7157830412888466,0.09732359301105552,0.009471881756581573,-0.0012925638023740611,2.572074714343651,2.9824147923080515,-0.0017162294785547279,0.0017647892606577878,-6.585779916599976e-06,0.0001212589252303933,0.4103400779644004,2.435260512726315,2.4389523200678465,0.07856289141599021,0.006172127907640668,-0.0007436374028667681,2.284661459039223,2.6183026319516203,-0.0013218837592513604,0.00946122378411543,-1.9568735857533605e-05,0.0031646628614516257,0.33364117291239737,8.0,10799.632000000001,0.06103995494470427,0.10419501954918015,0.10285714285714286,0.15771428571428572,0.01374754114511426,72.60504201680672,826.3888888888889,168.35802670000913,77.95119555779046,125.97277731716484,0.6666666666666666,0.6666666666666666,93.75,82.67972847076844,229.87579677826983,59709.32504639481,0.3596713078520329,0.13448090371167296,0.0,35143.617695789,0.0,2.1306669860840524,-0.2670352623808055,26.75317338620067,715.7322862321159,-134.79298964344596,107.36299119533162,0.014769505208779487,1.1426430084928525,-0.0001923435080543712,0.08450463302970097,242.15598083877757
73,4,1,0.11448094187040964,0.14330478126542315,0.09993898799474145,0.009987801321413074,-7.751384898228102e-05,0.012082511343329766,0.40338811556316545,0.0005434276025626121,0.016206383653653775,-8.221235647686854e-05,0.00519924025975134,0.3913056042198357,8.0,0.124,0.1086537418157593,0.1262083736587362,0.11800000000000001,0.166,0.02598377584656703,2.6556780929621846,2.6291343340478686,0.08497390895321233,0.0072205652027888196,-0.0011913011303263615,2.470678234438407,2.7455461310624747,-0.0010944971143723391,0.0009630252509890743,7.906864561002998e-06,6.435511618701556e-05,0.27486789662406785,2.3871007331103034,2.386594033205876,0.0907740679015426,0.008239931403393868,-0.0008740547632920712,2.227281819659413,2.5922534088740274,-0.0003422296889840424,0.011151631861662561,-6.15640578171627e-05,0.0035769367111264817,0.3649715892146146,8.0,10800.002999999999,0.07870525086921609,0.10165437127967536,0.10514285714285714,0.15999999999999998,0.01823727485503801,72.96912114014252,822.265625,164.60800307923785,70.3125,282.3329843686352,1.0,1.0,101.5625,193.34951048069655,116.00970628841787,70467.24244349658,1.6666666666666674,0.15206812652068125,0.0,23633.61370414646,0.0,2.352617985885912,-0.006446891885266777,18.555465769142522,344.30530990981987,-109.41541845539591,37.825780460265,-0.0018594742820234082,0.7988760930148178,-0.0007102331112535262,0.06307055034481646,147.2411989156609
74,4,1,0.14522763988289608,0.1685811717051378,0.10993734722778095,0.012086220315481677,0.00010328757995179342,0.012082511343329766,0.40338811556316545,-9.493613806810854e-05,0.018796640404405766,-0.00012892732242909656,0.0059779939554078995,0.3913056042198357,8.0,0.134,0.13739361050242485,0.16904888678100902,0.134,0.188,0.0371914752890547,2.6155882743021057,2.5977161275896483,0.07410610996027683,0.005491715533444641,-0.0004959273955493234,2.470678234438407,2.7036639449164612,9.076077010425805e-05,0.002388657392345237,2.1085259113521695e-06,0.00011109241923558639,0.2329857104780544,2.3815936301665337,2.382337881045141,0.10045695113138406,0.010091599030613284,-0.00027139590206764255,2.227281819659413,2.5922534088740274,-2.7808373188229854e-06,0.013121296254107436,-8.7008721419241e-05,0.004120589778272559,0.3649715892146146,8.0,0.491,0.09562748243815644,0.12142956552045014,0.10971428571428572,0.16685714285714287,0.021131163769121934,70.94688221709006,845.703125,159.23659354749265,70.3125,282.3329843686352,1.0,1.0,117.1875,193.34951048069655,116.00970628841787,70467.24244349658,1.6666666666666674,0.1478633742422002,0.0,37594.625175444955,0.0,2.2912194393445735,0.2677488072880712,18.337159862301526,336.2514318156021,-109.41541845539591,39.17684022877386,0.002577718143659378,0.7780014359841977,-0.0002979242966274306,0.0623851127954116,148.59225868416976
75,4,1,0.13104763403987588,0.18603029483921688,0.16122385394600267,0.025993131081202,0.0008810099397784458,0.012082511343329766,0.8061496384673449,0.0011266519210361248,0.02491667448031648,-0.0003999850722605765,0.006864965650053462,0.7940671271240152,8.0,0.48900000000000005,0.1613843159945211,0.2240237918661006,0.14200000000000002,0.2,0.050709481889138486,2.600249157379734,2.5910964912475283,0.07169838851349669,0.0051406589154323135,0.00029047097055234376,2.470678234438407,2.745538717945203,0.0003960266184959686,0.0035776413423911878,4.81533702184007e-05,0.00020873507031153544,0.27486048350679626,2.3666799856241747,2.3898053068822427,0.13489206562429898,0.018195869368390183,0.000806776402388959,2.227281819659413,2.858181127263254,0.0010527424789629472,0.017405832179028382,-0.00023177584210300843,0.004761318314924103,0.6308993076038409,8.0,0.8480000000000001,0.11476330707030447,0.16431028495430766,0.112,0.168,0.018125613448000063,60.31413612565445,994.7916666666666,202.92458061227245,85.9375,438.19698944937994,1.0,1.0,171.875,303.8349450410946,27.621358640099515,26365.294791784458,10.999999999999998,0.22346368715083798,0.0,117780.05277089232,0.0,0.5046704226972893,0.07872734373311338,16.886314927946472,285.1476318457879,-64.03619195541653,57.95249709832404,0.002947862486165782,0.8136394474109069,-0.00038697934873052826,0.07205099405889198,121.98868905374056
76,4,1,0.16789533627052333,0.1994790002805928,0.15789711526725142,0.02493149900971968,0.000638702717795013,0.012082511343329766,0.8061496384673449,0.0003364502532322719,0.024958697915778656,-5.0490178671330375e-05,0.006987517220338734,0.7940671271240152,8.0,0.848,0.17473635514022118,0.2514703988992085,0.144,0.21,0.05731524999009763,2.6259010603871076,2.664619191756166,0.1608820945145246,0.02588304833538042,0.00205676019154937,2.470678234438407,2.958724850278832,0.0014788134307372738,0.0042162391358496615,1.2421305321335304e-05,0.0002607775906236146,0.4880466158404251,2.44588091594449,2.4497790699735673,0.1653056443570981,0.027325956056315402,0.0018596270826030743,2.227281819659413,2.858181127263254,0.0012420750176831954,0.01729233541592185,-2.79642475422337e-05,0.004829215582659927,0.6308993076038409,8.0,1.207,0.12339182809206539,0.1859393435450037,0.13942857142857143,0.21028571428571427,0.04491693309370314,-1.0,-1.0,-1.0,-1.0,-1.0,-1.0,-1.0,-1.0,-1.0,-1.0,-1.0,-1.0,-1.0,-1.0,-1.0,-1.0,-1.0,-1.0,-1.0,-1.0,-1.0,-1.0,-1.0,-1.0,-1.0,-1.0,-1.0
77,4,1,0.19484694192125884,0.22293655712849378,0.14918510961779863,0.022256196931674594,0.0001275186968937896,0.02355695651538261,0.8061496384673449,0.0001813782644261962,0.02592272740441456,0.00017409414852237093,0.007345655304972285,0.7825926819519623,8.0,1.195,0.18030380430147044,0.26949813156333013,0.138,0.20800000000000002,0.06133360673602517,2.7507728227832375,2.796540734350896,0.19033712986376056,0.03622822300477405,0.0025955138767728998,2.4830208843066313,3.095588639529152,0.0025275471352412277,0.0039299834824767605,-1.226740407985344e-05,0.0002761705512917657,0.6125677552225208,2.5590387530091068,2.5568402844762734,0.16833178921774902,0.028335591261248686,0.0018781245180514545,2.237012448831692,2.874846465840532,0.0018482948258146188,0.01803847585930847,0.00011472340111978313,0.005036575992391708,0.6378340170088403,8.0,1.207,0.13067789075509784,0.20972260373725232,0.144,0.2217142857142857,0.052893087384457284,80.84210526315789,742.1875,136.14089190216387,101.5625,262.6208799058064,1.0,1.0,101.5625,71.81553246425872,82.86407592029849,18695.39085235624,0.866666666666667,0.2247191011235955,0.0,57465.15778561412,0.0,-1.9298172893466445,0.14836345306424512,18.880379868372447,356.46874397404355,-51.749665068651495,60.99762591541947,0.0059262166570450475,0.9860993423024451,-0.00018364622386682334,0.09518186965634513,112.74729098407096
78,4,1,0.22112450939515843,0.2666319484792649,0.17562654570469619,0.030844683556163734,0.0008641474260336623,0.02355695651538261,0.8061496384673449,0.0010913875581881486,0.028583235828818474,-0.0001266334537501596,0.00828778338409405,0.7825926819519623,7.0,2.1725714285714286,0.20713844101016451,0.3364443904198969,0.136,0.21333333333333335,0.07896419152843202,2.9541124903204508,2.929460679007804,0.18959538542941587,0.03594641017612876,0.002596106501555492,2.587705600606432,3.2131435106347617,0.0021269348686353854,0.003908446770635304,6.154522028820053e-06,0.00027283505114678735,0.6254379100283298,2.6966317394040304,2.6786729662424036,0.1993703102393865,0.039748520604949225,0.002386259348293818,2.276561750697736,3.0854035095680405,0.0022429177496951446,0.01980355050853169,-8.260670165433776e-05,0.005675521878435057,0.8088417588703045,7.0,2.177142857142857,0.1470102410132656,0.2534291760227684,0.152,0.2373333333333333,0.06770593898658261,68.03149606299212,881.9444444444445,197.10787471506907,122.28496751951975,204.62188833919993,0.75,0.75,171.875,133.7284591298726,206.55162603753567,86776.54034540604,0.6474335820797206,0.1260239445494644,0.0,29143.84534587475,0.0,-0.8511173878263047,0.1233952835835769,21.005110579462816,441.21467045546063,-107.7330914803544,60.99762591541947,-0.009880758205444784,1.0759073734012792,0.0003364926267075517,0.10424620654367567,168.73071739577387
79,4,1,0.22402325791380095,0.24833430098655143,0.14740934720914536,0.02172951564462637,0.00024040691575548747,0.01094603566244482,0.6983659992297477,-0.0009022263130382747,0.025688344465315847,0.00010458203061476475,0.007667395781942808,0.687419963567303,8.0,1.558,0.18383846172917484,0.26843594207790133,0.1325714285714286,0.20114285714285712,0.05927576622899194,3.072944095171189,3.046364179147042,0.10347075002282545,0.010706196110286033,0.0011662549774051035,2.7560069276212715,3.2131435106347617,0.001205448525883171,0.0037347128645474374,-4.2722564258559455e-05,0.000226792408148496,0.45713658301349014,2.7337099369187916,2.746627964265944,0.1412050859455411,0.01993887629688765,0.0009696256985555772,2.5133099760014375,3.0854035095680405,0.00020187462261162618,0.017964851101921586,3.2785308160935184e-05,0.005263247208088772,0.5720935335666031,8.0,1.562,0.12870996950152058,0.19973972304472765,0.13257142857142856,0.21028571428571427,0.045298753105034326,71.11111111111111,843.75,164.95630447595397,124.45192344837423,230.27666783675676,0.8,0.8,125.0,136.7522280440066,184.9567094619711,79461.06360016836,0.7393742483947262,0.10778184953653804,0.0,51336.15417957316,0.0,-1.0855228175163072,-0.3289134999463284,21.63424329528813,468.0404829597194,-107.7330914803544,68.80511969493824,-0.004550232588534487,1.0369906180864645,0.0006083059581134964,0.09947362540144433,176.53821117529264
80,4,1,0.19843103192303382,0.22722403390394355,0.16053998075635326,0.025773085421250272,-0.000793350468432766,0.01094603566244482,0.6983659992297477,-8.828312213151705e-05,0.02521327200478456,0.00011175596295347349,0.007571746744614925,0.687419963567303,8.0,1.205,0.1872664341394837,0.2653524776288937,0.13942857142857143,0.19657142857142856,0.05921617040847728,3.072944095171189,3.0666330578947845,0.07967846909934358,0.00634865843801505,-0.00021360176467505876,2.894417432223146,3.2131435106347617,-0.00013731805332477625,0.003176852754820244,-1.7391454967247606e-05,0.00018047030124361096,0.3187260784116157,2.7273274727590597,2.7459913602824484,0.13978975564158888,0.01954117578233513,-0.0006931247471272565,2.5380864184373992,3.0854035095680405,-0.00014317417911025216,0.01772459609490244,6.506753462253435e-05,0.005222228904854687,0.5473170911306413,7.0,1.3657142857142859,0.14782139856762402,0.21957057750634798,0.14133333333333334,0.21066666666666667,0.0495986681611148,67.13286713286713,893.75,160.99058590489074,85.9375,121.53397801643786,0.5,0.5,171.875,60.76698900821892,60.76698900821884,11600.729708385144,1.0000000000000013,0.22381378692927484,0.0,42052.50571409015,0.0,-0.3573492367469487,0.4066548488271078,21.91974523614548,480.4752312175225,-107.7330914803544,68.80511969493824,-0.0019690859576191764,1.0579578606037165,0.000346009567429928,0.09954605143198712,176.53821117529264
81,4,1,0.1900513586633713,0.2165601958235823,0.1590933206333544,0.025310684670147313,-0.0010795565434204724,0.01094603566244482,0.6983659992297477,-4.863727046511597e-05,0.02430743953419113,-9.214889765976824e-05,0.006999934172465687,0.687419963567303,8.0,1.209,0.18010131919146755,0.25754661950380586,0.13942857142857143,0.19428571428571426,0.05732301591973469,3.0414448945080155,3.0269936580598293,0.11390114249395218,0.012973470261427601,-0.0014522016841235046,2.86347411198166,3.2131435106347617,-0.0008577732282786474,0.0025885091757605907,5.396229995606461e-06,0.00015891401884557385,0.34966939865310165,2.6648951184113727,2.7113543394545943,0.15442506087504543,0.023847099426261488,-0.0017454230734119003,2.489771792450532,3.0854035095680405,-0.0006238357953220456,0.016973518328253324,-6.12043251162713e-05,0.004837564753102964,0.5956317171175085,7.0,1.3634285714285714,0.13835814332321153,0.2226784673349271,0.13866666666666666,0.20799999999999996,0.05391671688804259,63.78737541528239,940.625,200.68242947502904,0.0,171.875,1.0,1.0,171.875,0.0,0.0,0.0,1.1989230229856176,0.2126754572522331,0.0,76105.27255191495,0.0,-1.7389211690743798,0.09062498451797912,23.980044336364454,575.042526374005,-107.7330914803544,68.80511969493824,-0.011279672018799824,1.1707313011054679,0.0002453807287504626,0.10784031355193271,176.53821117529264
82,4,1,0.12272567422114876,0.14460463055259273,0.10359999465748856,0.010732958893031658,-0.0002567195004639461,0.01094603566244482,0.48041137491270847,-0.0019749260818268306,0.018161285912225343,0.0001583651897343928,0.004830974621147887,0.4694653392502636,7.0,0.5565714285714286,0.1400658134060098,0.1997088140166243,0.1462857142857143,0.2057142857142857,0.04534596377017954,2.892963661200647,2.9527156923442464,0.11832645209175761,0.01400114926462301,-0.0016273342342262578,2.739884613423442,3.2130431883624677,-0.001980552755179779,0.001860975169903532,-1.4236857196602003e-05,0.00012737343721058774,0.4731585749390259,2.5966713189128514,2.6105088426028678,0.11414507899623536,0.01302909905905681,-0.0012981001176023189,2.384566906840724,3.0248591094397717,-0.002748476350027092,0.012568231978271937,0.00010773838734430598,0.0033867507697663197,0.6402922025990478,6.0,0.6226666666666667,0.1045311601707235,0.14790120181937275,0.14133333333333334,0.20533333333333328,0.031544004896558224,69.97722095671982,857.421875,182.95892573432806,15.625,266.08416196760004,1.0,1.0,117.1875,187.82523875267668,11.048543456039852,6519.418348514003,16.99999999999993,0.14583637159107482,0.0,72018.7919515864,0.0,-2.761032530707773,-0.38160820399176715,26.37116356039352,695.438267529027,-87.16865179846754,68.80511969493824,0.004140786774943378,1.190104211675851,-0.0003609533448785644,0.10938243049836759,155.97377149340576
83,4,1,0.08912907765236806,0.11090128250170962,0.084990125614478,0.007223321451964748,-0.0004222806423288338,0.011627479045791643,0.3314154965776409,0.00021825972060056457,0.014341683451664582,7.451641318997277e-05,0.0041631998906685634,0.31978801753184927,8.0,0.49500000000000005,0.10061005190367237,0.13829554245956002,0.138,0.194,0.029854461816168326,2.8675966590004416,2.836675092096351,0.13053265442678927,0.017038773871703584,-0.0018017974689239996,2.582884172157099,3.042529816639412,-0.0019084313078931094,0.001623311741671593,-8.323469252373427e-06,8.559241499284947e-05,0.45964564448231293,2.533272656317079,2.507288926840215,0.12149204481378632,0.014760316953035065,-0.0015336747208817007,2.271429211642122,2.728401537938622,-0.0011582047276399324,0.009939232497517974,4.490323755211856e-05,0.002908863427689061,0.4569723262965,6.0,0.6146666666666668,0.08112133386151725,0.11214955795920815,0.12533333333333332,0.18666666666666668,0.02243313742894885,70.0,857.1428571428571,209.369764631469,101.5625,179.85725676908342,1.0,0.5,187.5,71.81553246425872,149.15533665653732,33651.703534241235,0.48148148148148157,0.33344448149383127,0.0,103889.85289374267,0.0,-1.9082661993141596,0.4402514936582599,27.649087797312003,764.4720560234674,-87.16865179846754,97.31322664560349,0.013113927165269329,1.2471611209236018,-0.0008373029019327821,0.11909102113152603,184.48187844407101
84,17,1,0.12917686950489746,0.1614437888193604,0.11676081806118134,0.013633088634316292,-0.00039692335840293036,0.02095147877232506,0.6307971578591678,0.0003426076348626268,0.01700934939726071,-4.321823433902556e-05,0.007962465105143203,0.6098456790868427,7.0,0.5131428571428572,0.14234146954082566,0.11471645995804033,0.16266666666666665,0.23199999999999998,0.025843240574895707,-0.2200976952815894,-0.22049752596463357,0.11202417308231462,0.012549415354776383,0.000374242336850496,-0.43366061738875755,-0.020849732529853005,-0.0002794364052105286,0.004907562012288242,1.3349938727992763e-05,0.00027347779589371085,0.41281088485890455,1.0652013126902926,1.0658053610819935,0.017421780367702408,0.0003035184311804611,-6.243431602513039e-06,1.029291536272254,1.151215942086147,1.814156004405256e-05,0.004965191328792439,-1.948761443428352e-05,0.0028730409538086556,0.12192440581389308,6.0,0.09066666666666667,0.05178211788122766,0.032612663696643916,0.1472,0.1856,0.005619239439235938,62.745098039215684,956.25,159.77278788955272,144.33756729740642,236.6211810750114,0.8333333333333334,0.6666666666666666,70.3125,165.31844008441539,150.54696284161076,78188.5519008078,1.0981187329454503,0.10462439840970915,0.0,43458.26738936677,0.0,0.6101136526305444,-0.0881649659379133,17.586635746851904,309.2897568924492,-90.93097456388642,41.15088343650144,-0.0007033588188036552,1.08869744199029,-1.3781921420678046e-05,0.1152017155165337,132.08185800038785
