,subjectID,Label,median_p,mean_p,std_p,var_p,slope_p,min_p,max_p,fdmean_p,fdstd_p,sdmean_p,sdstd_p,drange_p,peaks_p,rise_time_p,max_deriv_p,amp_p,decay_time_p,SCR_width_p,auc_p,median_t,mean_t,std_t,var_t,slope_t,min_t,max_t,fdmean_t,fdstd_t,sdmean_t,sdstd_t,drange_t,median_f,mean_f,std_f,var_f,slope_f,min_f,max_f,fdmean_f,fdstd_f,sdmean_f,sdstd_f,drange_f,peaks_f,rise_time_f,max_deriv_f,amp_f,decay_time_f,SCR_width_f,auc_f,bpm,ibi,sdnn,sdsd,rmssd,pnn20,pnn50,hr_mad,sd1,sd2,s,sd1/sd2,breathingrate,lf,hf,lf/hf,median_bvp,mean_bvp,std_bvp,var_bvp,min_bvp,max_bvp,fdmean_bvp,fdstd_bvp,sdmean_bvp,sdstd_bvp,drange_bvp,boolean_mask
0,5,1,0.07832876378064459,0.09549329786058677,0.0587052464839653,0.0034463059647431207,-0.0001139008393518404,0.017491298598090853,0.2522173295119526,-0.0002964130134226799,0.01052529235091805,9.427833084680702e-05,0.0035060292353025417,0.23472603091386174,8.0,0.8260000000000001,0.07501965058145287,0.08745435658738496,0.12533333333333332,0.18133333333333332,0.017989769673868176,0.75431010135461,0.7859678348273957,0.0872356590282071,0.0076100602060856105,0.0011948215285497979,0.6356410753189279,0.939290434551003,0.0012755017206466735,0.0012928916125591486,-1.0179260476981742e-05,6.500184643398601e-05,0.30364935923207514,2.4426999261964584,2.4218185651806396,0.08911115530315072,0.007940797999462247,0.0010099641476535098,2.270628050919073,2.6288989799550357,0.0009393522340075067,0.009995234510310848,9.101187549222188e-05,0.0032717209030730496,0.3582709290359629,9.0,1.0764444444444445,0.06566568686560556,0.08983168600906034,0.10666666666666667,0.16533333333333333,0.012706340964369907,-1.0,-1.0,-1.0,-1.0,-1.0,-1.0,-1.0,-1.0,-1.0,-1.0,-1.0,-1.0,-1.0,-1.0,-1.0,-1.0,-1.0,-1.0,-1.0,-1.0,-1.0,-1.0,-1.0,-1.0,-1.0,-1.0,-1.0,1
1,5,1,0.08290490438777796,0.0961667463804865,0.05684025371027637,0.0032308144418485866,1.0291194810417115e-05,0.017491298598090853,0.2522173295119526,0.00013629313820810658,0.010925930957072158,-1.9428965254085257e-05,0.004081543324351526,0.23472603091386174,10.0,0.6832,0.08656274206574,0.09035284653947831,0.11,0.15799999999999997,0.013522907087043854,0.869852538289367,0.8519827777810852,0.09821236279484193,0.009645668205745651,0.001391878358489448,0.6957008636913666,1.0007819034950538,0.0011900166845536418,0.0010239170082593477,1.3664757390636934e-05,5.3501674052806635e-05,0.30508103980368717,2.4904165473077935,2.4840432279636047,0.10373668717150301,0.010761300265318277,0.0013105843989298684,2.273985188851668,2.6891469141706357,0.00121072188832138,0.010537862554005873,-1.1519500069059422e-05,0.003778358036749107,0.4151617253189679,11.0,0.9025454545454547,0.07407407637231471,0.09308019545382541,0.09799999999999999,0.152,0.010581090133498014,-1.0,-1.0,-1.0,-1.0,-1.0,-1.0,-1.0,-1.0,-1.0,-1.0,-1.0,-1.0,-1.0,-1.0,-1.0,-1.0,-1.0,-1.0,-1.0,-1.0,-1.0,-1.0,-1.0,-1.0,-1.0,-1.0,-1.0,1
2,5,1,0.09145564244181141,0.10514775484886683,0.06175545223063693,0.00381373588021048,0.00029284118579066455,0.017491298598090853,0.2899358113767828,0.00023699063014627646,0.012457688195299129,8.7541957229715e-05,0.004394978840384888,0.27244451277869197,9.0,0.7448888888888889,0.08824686473857114,0.09252549600684676,0.10514285714285714,0.15085714285714286,0.013111191525990815,0.9399084538607425,0.9435039757306555,0.09514548629859514,0.009052663562996156,0.0013550342536757698,0.755914537724673,1.1109921630596322,0.0014087430122344613,0.0011078970086704704,-2.0642739511463754e-05,6.654025201289385e-05,0.35507762533495923,2.5553477323918052,2.5779214374837656,0.119971424982378,0.014393142812302355,0.0015375689582163606,2.376292339534581,2.8616487788104874,0.00152835989822863,0.011773256516443262,5.868810054326194e-05,0.004042009918800393,0.4853564392759062,11.0,0.6400000000000001,0.07073540458565185,0.08971499433949423,0.09,0.14,0.008885961880469563,-1.0,-1.0,-1.0,-1.0,-1.0,-1.0,-1.0,-1.0,-1.0,-1.0,-1.0,-1.0,-1.0,-1.0,-1.0,-1.0,-1.0,-1.0,-1.0,-1.0,-1.0,-1.0,-1.0,-1.0,-1.0,-1.0,-1.0,1
3,5,1,0.09712242071180693,0.11356365733920276,0.06198223546693537,0.0038417975134786204,0.0002891382007242293,0.02728796386249382,0.2899358113767828,0.00040001088049026437,0.012418785805698183,2.8059522225519698e-05,0.004440309108915825,0.262647847514289,9.0,0.4275555555555556,0.09595616525206165,0.10431077255867001,0.10514285714285716,0.1531428571428571,0.016450809063720262,1.001990627889565,1.0094955674726858,0.081773171167759,0.006686851522831613,0.0011328663199773857,0.8702842723244985,1.1372842576954763,0.0011171213708972003,0.001239764398649834,1.8123548379312542e-06,8.250326781002205e-05,0.2669999853709778,2.669253505248909,2.6474037077501773,0.11039867118656482,0.012187866599759258,0.0013259476604814508,2.4586396508806185,2.8616487788104874,0.0014160061997062787,0.01195317737089808,2.856834678270359e-05,0.004079728445435576,0.40300912792986887,11.0,0.64,0.0763792027096843,0.09550188538994081,0.09422222222222223,0.14577777777777776,0.013545233098145237,65.64102564102564,914.0625,170.62757553001214,0.0,328.125,1.0,1.0,117.1875,0.0,0.0,0.0,3.113803325925219,0.27367268746579093,0.0,0.0,-0.012669351414824392,3.306663586399565,0.14575974193781177,52.26818877824912,2731.963558158687,-247.28557059365843,156.78721187284765,0.012458514406372603,2.6624313836348983,-2.5280783724042124e-05,0.2493077665625503,404.07278246650606,1
4,5,1,0.10617248709224524,0.12105921555302694,0.06378892447480115,0.004069026885651886,-8.678723567375222e-05,0.017072752980128628,0.2899358113767828,3.2144020701535486e-05,0.013557350745284054,-3.473096662615973e-05,0.004806705952419133,0.2728630583966542,11.0,0.37163636363636365,0.09671223035097071,0.10585698814481553,0.096,0.13714285714285715,0.013281448018852443,1.087185165665168,1.066421049913357,0.06447967833226799,0.00415762891783275,0.0008369981692470344,0.9405264731704819,1.1433978628826222,0.0007458343404731541,0.0014072349658613825,-3.964032317486932e-06,8.930454614817434e-05,0.20287138971214036,2.7069202716270215,2.7075386279669034,0.08361689844613412,0.006991785705751108,0.0006992983893392966,2.529453235913917,2.8643320209871783,0.0006942293914421175,0.01298856112915216,-3.871942958126688e-05,0.004410867270123696,0.3348787850732613,12.0,0.6000000000000001,0.08325481597843683,0.10348121909463333,0.092,0.136,0.011452252799230001,65.08474576271186,921.875,228.42140724046484,132.8125,405.19695249656064,1.0,1.0,250.0,270.68931467297523,93.91261937633828,79862.87476929615,2.8823529411764723,0.31007751937984496,0.0,36040.40027507218,0.0,2.8558814241832664,0.49175454541776287,46.833330812860595,2193.3608750268377,-149.55259683154534,156.78721187284765,0.008635689608365164,2.4480056579724683,1.2979291493922518e-05,0.2368429922745596,306.339808704393,1
5,5,1,0.11677843516431666,0.1311417329121062,0.06901435996151731,0.004762981880897883,-0.00013331780751262256,0.017072752980128628,0.2899358113767828,-0.00016316349650586826,0.01381999895427288,1.9373915876772893e-05,0.00483235749946158,0.2728630583966542,11.0,0.376,0.09454989770060665,0.10637142312244913,0.096,0.14,0.014512423511317082,1.1184874506760631,1.1112619466587748,0.037075655838300095,0.001374604255840076,0.0004458203621550739,1.003199352284076,1.196654310410822,0.0008172173376900428,0.0014516772024492826,1.3313379630298014e-06,8.795574869504632e-05,0.19345495812674596,2.7615759817401466,2.7588652642719995,0.06408824858999847,0.004107303607333441,0.0002922856822874766,2.6081807954936376,2.9196286182887805,0.0006207387940031959,0.013195027785741643,-2.2228182062731158e-05,0.004426929314892128,0.31144782279514294,12.0,7200.284000000001,0.08167065683903833,0.09155072484311773,0.09279999999999998,0.14079999999999998,0.012789722955253791,65.50106609808103,916.015625,186.67420689930458,145.70679033593458,327.9017097393669,1.0,1.0,164.0625,226.70792746395082,109.9094087191811,78280.11425672992,2.062679893431056,0.40955631399317405,0.0,80991.24761619401,0.0,5.499649084914637,1.0167585762635971,46.80576420300019,2190.779562626854,-147.82819384920606,156.78721187284765,0.008295679774151635,2.4813619168486283,-0.0010844072317862483,0.23517194283366963,304.6154057220537,1
6,5,1,0.13135268337843414,0.1438992383902846,0.08208927671930455,0.006738649352298557,0.00034820840980619226,0.017072752980128628,0.418655966356659,-0.0007927116568430971,0.01476511987966461,-2.2317101058099095e-08,0.005434670174317763,0.4015832133765304,11.0,0.3774545454545455,0.10711593377761952,0.10970501897749224,0.092,0.132,0.011799368585251607,1.1361428010038617,1.168566860104814,0.08885364910628292,0.007894970959502453,0.001110707302513365,1.0681258211338855,1.4042811034313534,0.001304854199480337,0.0016436741322682544,1.786391678704919e-05,6.766634158496696e-05,0.33615528229746783,2.78800230739255,2.8242350230986415,0.13025165325330856,0.016965493175220125,0.0013605658395560436,2.6556872045332027,3.1923551451630465,0.00044861684463910664,0.01430737607305985,9.887419809668137e-06,0.005070785520609501,0.5366679406298438,10.0,0.6944,0.09119260390499821,0.10352625161287535,0.09999999999999999,0.148,0.014009341787239032,65.97938144329896,909.375,177.71334010141163,145.70679033593458,327.9017097393669,1.0,1.0,140.625,226.70792746395082,109.9094087191811,78280.11425672992,2.062679893431056,0.44004400440044006,0.0,145624.62704213514,0.0,5.870284792344739,0.2679392223520792,48.76389417002001,2377.9173746249116,-147.82819384920606,156.78721187284765,0.024270763430112797,2.524620067694112,-0.00022205809099092982,0.2401732487052408,304.6154057220537,1
7,5,1,0.12528471842884523,0.13770829693537537,0.08365446464050026,0.006998069454288709,4.446592456935475e-06,0.017072752980128628,0.418655966356659,-0.000531767750202699,0.014598181891591434,-2.4251925233402008e-05,0.00552011010631249,0.4015832133765304,11.0,0.11490909090909093,0.11076045453866894,0.10761016288750538,0.096,0.1368888888888889,0.011999028445864908,1.198101660906943,1.260390566826441,0.13840661806617088,0.019156391924514904,0.0018812389660497206,1.1178050925111642,1.5077355889487598,0.0015455444192977402,0.0014398142322378886,5.140783222125587e-06,5.014003742172152e-05,0.3899304964375956,2.866286815158205,2.904251393761756,0.14771500299861054,0.021819722110879524,0.0017607135804645704,2.6556872045332027,3.1923551451630465,0.0009079768305162467,0.014016513193323789,-3.3751897869430114e-05,0.005154603173568299,0.5366679406298438,10.0,0.12319999999999998,0.0956508247894261,0.10055859769215707,0.11733333333333335,0.16533333333333333,0.01553167531543591,69.33333333333333,865.3846153846154,169.7905133308683,152.3813054671057,304.53722255559336,0.875,0.875,93.75,212.9846767591032,135.19660479554278,90461.54838772713,1.575370010816462,0.17785682525566918,0.0,214361.0754391316,0.0,4.767146580595352,-0.6424857345663157,44.06158476139238,1941.4232516853656,-147.02412452108456,100.17621599578233,0.0006363621974773729,2.4014296102152604,0.0011054733747855277,0.23422644496058792,247.2003405168669,1
8,5,1,0.11664627869775601,0.1367340925726649,0.08772805346335599,0.007696211364469448,-0.00044994932451157825,0.013725631508302437,0.418655966356659,-0.0005283510030284559,0.014667672606807645,8.524260960402439e-05,0.005478744491991051,0.4049303348483566,9.0,0.44,0.11204088915534235,0.13007594492115027,0.11,0.16,0.021044457851317352,1.4055312635959485,1.373279687382193,0.16826291780755823,0.028312409509113092,0.0024112623890565478,1.1190868565894534,1.617966875096989,0.0020656237621937876,0.0011294701922973615,-3.6551452717169714e-06,5.662112593898167e-05,0.4988800185075357,3.0365478834168487,3.00863099970122,0.1526445324907237,0.02330035329931161,0.0018295176180125052,2.7397551844011683,3.318388123897427,0.0014455513303721949,0.014213146061068115,6.703816785788297e-05,0.005143903078865602,0.5786329394962588,9.0,0.44355555555555554,0.08992357364728774,0.1180533175917932,0.148,0.21,0.03166032812527809,65.50106609808103,916.015625,163.67840082455712,121.70126505779086,264.0886944601504,1.0,1.0,117.1875,185.82877890532578,90.36120610884102,52752.720919019564,2.0565106078984057,0.13651877133105803,0.0,10461.311544884486,0.0,3.603034921406042,-2.0420939619649356,45.748859800465574,2092.958173042655,-191.04926779084565,103.35093069682542,-0.027632166155892108,2.5422753111430714,0.0022234122798456385,0.24294458811373257,294.40019848767105,1
9,5,1,0.10271626645484459,0.12529235469591055,0.08723631743666733,0.00761017507991099,-0.00047045548297738963,0.013725631508302437,0.418655966356659,0.000747554316692849,0.014454018438015368,4.027559554040918e-05,0.005381399766571013,0.4049303348483566,8.0,0.47900000000000004,0.11589034896330178,0.13602048570298378,0.13942857142857143,0.1897142857142857,0.02557374294675266,1.5089306116879113,1.4915112915493969,0.12881284479233238,0.01659274898349351,0.0017866023515087052,1.199549011403064,1.642598225653006,0.0018528071158262882,0.0013131551116116918,-1.1305809017222539e-05,5.776790165695174e-05,0.44304921424994204,3.1043676483607765,3.108267664983172,0.11468862042664414,0.013153479655366855,0.001228884952498595,2.7546171126744223,3.343236316532076,0.002442018851185712,0.013881100911479169,7.2320976221026035e-06,0.005050041909874075,0.5886192038576539,9.0,0.42933333333333334,0.08424916905226373,0.10649176131241767,0.15085714285714286,0.20342857142857143,0.03077495882463412,-1.0,-1.0,-1.0,-1.0,-1.0,-1.0,-1.0,-1.0,-1.0,-1.0,-1.0,-1.0,-1.0,-1.0,-1.0,-1.0,-1.0,-1.0,-1.0,-1.0,-1.0,-1.0,-1.0,-1.0,-1.0,-1.0,-1.0,1
10,5,1,0.08737694700838144,0.09823405693063213,0.06182486459043554,0.0038223138816256903,-9.100454455281023e-05,0.013555846521857422,0.26534788559259453,0.00020918153778299244,0.011568500475995148,0.00012739031121973286,0.003994756164196157,0.2517920390707371,6.0,0.5960000000000001,0.08043417891564578,0.10998472658829932,0.14666666666666667,0.20266666666666663,0.02599406163172765,1.6107560643788563,1.581292635838673,0.08213550558499329,0.006746241277702464,0.0011160343675730912,1.4067814237605434,1.7703420251726962,0.0015347675423041441,0.0016574125543086756,1.949428873603461e-05,9.54540022497468e-05,0.36356060141215285,3.1766019488904176,3.166863095003694,0.0910877046072739,0.008296969930621987,0.0009555126253528896,2.9701641686614164,3.358119650904045,0.0016651234328178693,0.011440206574652853,0.00011401596909091742,0.0037818863459841484,0.38795548224262877,8.0,0.473,0.06386661542696626,0.092603942324954,0.15466666666666665,0.20799999999999996,0.030119601457961723,71.70124481327801,836.8055555555555,178.1693279259375,162.54673473257537,229.1074734158622,1.0,0.6666666666666666,125.0,146.1120847823493,103.77530648526702,47635.42396146211,1.4079658228048002,0.3985651654045437,0.0,147665.58336603845,0.0,2.2677987751812965,0.08041261177112892,43.17810425947639,1864.3486874422135,-191.04926779084565,156.93302903473057,-0.028306193438593592,2.564382103848529,-0.0009338365081149986,0.24319280476947044,347.9822968255762,1
11,5,1,0.09242305408566148,0.10624801961969718,0.06712911224219302,0.004506317710424949,8.076638212560077e-05,0.013555846521857422,0.27149790069576785,0.00021631427211137136,0.011568672059467952,2.8844115610853187e-05,0.004000204316710067,0.2579420541739104,7.0,0.5108571428571429,0.058359106023190985,0.07762263834605883,0.12114285714285712,0.16914285714285718,0.018348116168207796,1.6368293352357863,1.7090115805183452,0.1633724052198835,0.026690542787329814,0.0020457890381333946,1.5101256344270628,2.0921951343461367,0.0024318956627108358,0.002585517028103715,-7.5646249039604725e-06,0.0001176589311445871,0.5820694999190739,3.230013080843477,3.2935345055014724,0.16905478973786908,0.028579521933315123,0.0019864852152973816,3.015296792389619,3.6213753110307207,0.0025031651690246496,0.011488500647404835,2.1221879414214107e-05,0.003834607873227532,0.6060785186411017,8.0,1.187,0.05579774150371275,0.10893777903511981,0.14,0.196,0.03200906315438085,72.58979206049149,826.5625,158.33761644426127,103.90592366281251,158.57643070456592,1.0,0.6666666666666666,70.3125,104.55656197856632,112.79379076931103,37049.84195357192,0.9269709020810222,0.4842028810071419,0.0,78132.75917181026,0.0,1.963894513420836,0.07135851732948849,46.15601231462392,2130.377472787715,-191.04926779084565,156.93302903473057,-0.006931204016945162,2.6583045052480863,-4.93898025876473e-05,0.2490516616417158,347.9822968255762,1
12,5,1,0.09126410132324836,0.10097293443894508,0.05954438070315665,0.003545533273322454,-9.163272222895269e-05,0.013555846521857422,0.27149790069576785,0.00037664410365299134,0.010704166508579466,-2.536991593571405e-06,0.0036741575838311687,0.2579420541739104,7.0,0.11885714285714287,0.06659194941284334,0.0688361720732897,0.12000000000000001,0.16266666666666665,0.014968491089337422,1.7739488618766575,1.835293984405581,0.20553288214149593,0.042243765641390055,0.0028035024574711233,1.6065091094078037,2.156842924343535,0.002270853018075274,0.002865397602505922,2.6012917597671946e-05,0.0001404372338592254,0.5503338149357315,3.378699894723313,3.406581538639893,0.19286291253967022,0.03719610303328449,0.0025307470131465544,3.130003575341535,3.7329561266079,0.0024767698554798534,0.010623490302088116,1.706370521873668e-05,0.00350056774084432,0.6029525512663647,8.0,0.8320000000000001,0.060238980454006,0.08860468868827315,0.088,0.128,0.007931846738301477,75.44204322200393,795.3125,120.3125,83.00717422140222,181.54609435347265,1.0,1.0,93.75,127.89613706050703,67.7083333333334,27205.043437257464,1.8889275627397943,0.1258019876714052,0.0,7213.557341578137,0.0,0.45444578350636833,1.1304561792154024,42.998318055495744,1848.8553556015715,-190.20051622070153,156.93302903473057,-0.011272421876033105,2.41805416642503,-0.0006190571603150119,0.22548262601924118,347.13354525543207,1
13,5,1,0.09565145731031788,0.10946646465583866,0.05977638054018051,0.0035732156704844707,1.4040700404275323e-05,0.013555846521857422,0.27149790069576785,-0.0006608103279723635,0.010911089500565707,-1.2784873229734126e-05,0.004048842748063331,0.2579420541739104,10.0,0.1072,0.07035434315690446,0.06703029128734414,0.09244444444444444,0.13333333333333333,0.010858320273910874,2.0668012683095496,1.9902777409619443,0.21820936074821937,0.04761532511814654,0.0030167716637425858,1.6356225234252886,2.2674884379268905,0.002435272954673721,0.003090677949746182,-5.0854170564651e-06,0.00016198676951767558,0.6318659145016019,3.591100589593526,3.559176637108203,0.21247874535510264,0.045147217227678546,0.0028282423078411756,3.2038487312871275,3.9080214841564502,0.0016660918232166365,0.011245603711473205,-3.435748162063425e-05,0.003924788753276222,0.7041727528693227,10.0,0.9720000000000001,0.0659788473571549,0.09461311910359753,0.08266666666666667,0.128,0.007850809983089199,66.4089521871821,903.4926470588235,143.62959452659967,89.60755486502737,222.01189047861578,1.0,1.0,125.0,152.89610316877773,126.91435335067409,60961.69458054214,1.204718766098221,0.2605693440166764,49858.02647301577,115954.47757517126,0.42997931184411303,0.8780976324625345,-0.34822789509631474,39.05080176836485,1524.965118752127,-190.20051622070153,122.15434666571473,-0.006996301548976288,2.1825265176575366,0.0002825635972080968,0.21077052624068307,312.35486288641624,1
14,5,1,0.09415700380463057,0.10570913811380601,0.06309194230648286,0.003980593184004563,-0.00028788093756614615,0.009703713554945195,0.27149790069576785,-0.00019344364366384064,0.010971387810247457,-0.0001312107684570121,0.0041367866189730785,0.26179418714082264,10.0,0.11359999999999999,0.07791495295712907,0.07714717545638343,0.1031111111111111,0.14577777777777778,0.01401007316926748,2.1596787602517313,2.131687740082425,0.12298374344738928,0.015125001152333267,0.001571034252762683,1.7775556985806185,2.2674884379268905,0.0018741918523279772,0.003014518764309674,-3.5283234674966106e-05,0.0001406555983750797,0.489932739346272,3.6925123500803454,3.6876823042135567,0.11101870801234377,0.012325153528730043,0.0011964754677542965,3.3992801385425806,3.9080214841564502,0.001589060943662677,0.011009329210116842,-0.00017730094026423374,0.004022259382954819,0.5087413456138696,9.0,0.7537777777777779,0.0732718141589517,0.08788967318940417,0.09866666666666668,0.1466666666666667,0.012430598256090797,71.0015408320493,845.0520833333334,146.91631917322772,73.68641326594748,221.96301071349703,1.0,1.0,93.75,155.05795287569094,122.95197233066253,59893.46218613288,1.26112619371964,0.09867771857114663,0.0,85124.65639988446,0.0,1.760208297305652,-0.3239500781266781,34.08042942921341,1161.4756700795954,-190.20051622070153,122.15434666571473,0.009841482253859635,1.8159177180563844,0.0008228564622924384,0.1750327080462832,312.35486288641624,1
15,5,1,0.09335346138533762,0.09815932288978949,0.052231289569581514,0.002728107610101475,-2.3066753427169712e-05,0.009703713554945195,0.2701142070473974,-8.959803519850266e-05,0.010302233230968743,-2.0239378236866676e-05,0.0039880045686852775,0.2604104934924522,11.0,0.3861818181818182,0.08241702426029475,0.0863385610639589,0.11022222222222221,0.15644444444444444,0.015751991426669592,2.2116278989261593,2.186840915304933,0.06378381453385427,0.004068374996489119,0.00048127298814082284,2.062378657502096,2.2674884379268905,0.0002977210570197786,0.00212179149375021,-5.29516985425064e-06,0.00012561648662566397,0.20510978042479433,3.7385671164649,3.7320769548820616,0.08248280086666314,0.006803412438809605,0.0004267990589614874,3.557670313177129,3.9080214841564502,0.00018558213411702939,0.01026689741532513,-3.1274963191183874e-05,0.003789952098669347,0.3503511709793212,9.0,0.4382222222222223,0.0780103975073582,0.08961878611964987,0.09999999999999999,0.15000000000000002,0.012328162342811755,66.41509433962264,903.4090909090909,148.80235987281588,127.59752321141465,256.62605790088816,0.75,0.75,78.125,171.94157091463876,84.64042453132991,45720.24994660655,2.0314355919965177,0.30205396697543296,0.0,106968.2181317134,0.0,0.8654919054096943,-0.15697410593161057,23.26587374258889,541.3008810060871,-112.2462840009343,117.02924901481909,-0.00015150650327129997,1.2622958752395501,-0.0001564396063503734,0.13521299478635643,229.27553301575338,1
16,5,1,0.0929798002318594,0.09714280346790982,0.05435798236135066,0.0029547902463969095,-0.0003349878508816059,0.004565127712945413,0.2701142070473974,-0.0005236066904775277,0.00974678338580143,-4.79384192663675e-05,0.0038917930511073737,0.265549079334452,11.0,7854.565090909091,0.08132416090921314,0.08698754613570456,0.12088888888888888,9599.744,2503.0589591940275,2.2116278989261593,2.1985706113176087,0.0453039887716155,0.002052451398618663,-0.0005697991398587441,2.1174203846033817,2.2674884379268905,-0.00017650713202334116,0.0016758309742975338,-2.4580005934200324e-05,8.815393755738193e-05,0.1500680533235088,3.7435123516887896,3.742085610672218,0.071191103722729,0.0050681732492603585,-0.0008454584574190382,3.577775821610281,3.9080214841564502,-0.0006576888856987623,0.009573854642463757,-6.128731870129605e-05,0.003697014649993032,0.33024566254616916,10.0,8639.728000000001,0.07216482450354747,0.087942079762648,0.1,0.148,0.010855951595232732,66.78260869565217,898.4375,187.3371688794031,51.55986946151909,275.6975055805426,1.0,1.0,140.625,191.43724947384482,111.34144961683307,66962.73597600443,1.7193709093302707,0.41759465478841873,0.0,70898.53651769669,0.0,2.56796789624362,0.3295378054754139,18.53339788195817,343.4868370509716,-105.4980790164674,69.06966988332576,0.028157155415981853,1.1261104941871518,-0.0007621957301335141,0.12629544960607628,174.56774889979317,1
17,5,1,0.06236235867319136,0.06958568267413133,0.05017823321816355,0.002517855088896412,-0.0003462820613690675,0.0025335761033907114,0.20207635347363526,-0.0001381420586931093,0.007669528992725745,2.5379213804135592e-05,0.002954073713641264,0.19954277737024453,7.0,0.5337142857142858,0.07707919560854419,0.0791915653951512,0.1248,0.1728,0.015658593261410923,2.1639830118890835,2.1553164911616887,0.06624044370976832,0.004387796382866987,-0.0009185344096809703,1.9844768211597108,2.237707192858722,-0.0010169262314453245,0.001023669584969631,-7.204166349386356e-06,5.095716696326293e-05,0.2532303716990114,3.6992247508015215,3.6760606975732424,0.09248152720343746,0.008552832873880142,-0.001179890266205986,3.4826873272195966,3.8650044689168626,-0.0010460367288506263,0.007281500161634394,1.3564773870360091e-05,0.00275044470189125,0.38231714169726594,6.0,0.12,0.06827151564038925,0.06994789518761697,0.11840000000000002,0.16960000000000003,0.01411088707651655,68.43564356435644,876.7361111111111,150.1309549245032,103.90592366281251,209.82538623420507,1.0,1.0,78.125,73.47258322742648,73.47258322742647,16959.009821624586,1.0000000000000002,0.3803245436105477,0.0,32959.120216475414,0.0,1.9717691651156168,0.29680418335504,15.557267194816779,242.02856257092233,-85.46210427937612,44.812533904130085,-0.0011132404609975452,0.9860649173858073,-0.00018700330251800328,0.11955341900793706,130.2746381835062,1
18,5,1,0.04957074246368735,0.06315830771670533,0.04810617375750313,0.002314203953587083,-0.00032256361601296215,0.0016637934212336307,0.17512040498431525,-0.00016874426352982936,0.006916316906870829,-5.587781660210536e-05,0.0027070553615469047,0.17345661156308162,7.0,0.5268571428571428,0.06110497249507712,0.0671473557373715,0.12000000000000001,0.17866666666666667,0.01319235920648737,2.1172992079002775,2.0852835194472017,0.09293441078407076,0.008636804707782407,-0.001305499095235083,1.940178623514422,2.22309127459352,-0.0011315138494628568,0.001016176074428837,8.909147996132016e-06,4.937617994838109e-05,0.282912651079098,3.5959770315027724,3.6046313802613392,0.11337525184569232,0.012853947731074159,-0.0015206495695724333,3.411743064400849,3.7936019088075015,-0.0012082598538876415,0.006694703017581541,-4.544685526950328e-05,0.002512807699599966,0.3818588444066524,6.0,0.5853333333333334,0.047629827280162296,0.056734895914278306,0.0992,0.16,0.011006592207689393,69.08545727136432,868.4895833333334,148.70566967528976,93.49647432820959,207.19087792620923,1.0,1.0,85.9375,120.82042405897964,150.87319987073948,57266.72270867781,0.8008077257093537,0.2879907842949026,0.0,62052.45290925996,0.0,0.6344818622774945,0.6258071555337925,21.406981135668964,458.2588413428869,-85.46210427937612,145.85216822154345,-0.0044553389886709946,1.0416811954707696,2.7210787609629333e-05,0.12409849443125216,231.31427250091957,1
19,5,1,0.04533529893007504,0.06207542579974287,0.05254296345708968,0.0027607630088530614,0.00017254293475572245,0.0016637934212336307,0.23109013069033066,0.00017128839324669925,0.0074415996403692595,5.7812377798548564e-05,0.002612895305460359,0.22942633726909703,6.0,1.0826666666666667,0.05973670849823955,0.08678870344899725,0.1376,0.2144,0.02102104015704382,1.9960681961251407,2.0326914227459505,0.0764084825455088,0.005838256204907324,-0.0009503626033965121,1.940178623514422,2.1634828136794395,-0.0007912248279163036,0.001344370039498576,-7.301881369356269e-06,6.944810349453193e-05,0.22330419016501746,3.540565446658234,3.5545150445841345,0.08601748844529569,0.007399008318436578,-0.0007276836671047002,3.411743064400849,3.7616331214191696,-0.0005719365238771192,0.007253169991159321,3.3236038065767116e-05,0.00240057100274192,0.34989005701832054,6.0,1.0773333333333335,0.05053292161902837,0.07919074254116154,0.11839999999999999,0.192,0.01843306954890802,77.08908406524466,778.3203125,182.06802455116835,148.80001623066752,270.3320681741871,1.0,1.0,125.0,191.09055677177162,177.49985056940326,106558.25264763884,1.076567423345826,0.48204386599180526,0.0,113657.12397201953,0.0,-0.8549883160600484,0.09411267211537866,20.843984014106148,434.47166958031266,-85.46210427937612,145.85216822154345,-0.0015303755375290892,0.9860498780002864,-3.432250369624255e-05,0.11719116275492382,231.31427250091957,1
20,5,1,0.049156258980511215,0.06145123495201705,0.04860572089601735,0.0023625161038215376,0.00033865984422496066,0.0016637934212336307,0.23109013069033066,0.0006662681730522463,0.0074709230048144995,-1.3204071414090086e-05,0.0025543936988711123,0.22942633726909703,7.0,0.950857142857143,0.04214309296120618,0.06630085822258901,0.11466666666666665,0.18400000000000002,0.01525088248204358,1.964367975952174,1.9665102489331363,0.07847086001031375,0.006157675870758258,-0.0009535428242809673,1.8172319115706,2.1171780311971737,-0.0011112914176657066,0.002006649790863314,1.5111601670158662e-05,0.00011819633605321766,0.2999461196265738,3.4948218756066867,3.4921551798573605,0.07743306111754693,0.005995878954033759,-0.0005751613841117904,3.3067155536073,3.6796724791127904,-0.00040732770086338764,0.007760085821801852,4.117737656225695e-06,0.002364196014161718,0.3729569255054903,5.0,1.2672,0.03956417622981299,0.07517561444516448,0.1056,0.176,0.016100752496153056,79.52662721893492,754.4642857142857,151.3089940185922,57.17075211993615,158.0256251823916,1.0,1.0,148.4375,99.67461411502725,169.3194756117221,53020.19863753949,0.5886777865034134,0.0947238798901203,0.0,130347.12670314158,0.0,-1.153871346587758,-0.037682734052336166,18.97069574169327,359.88729692389916,-64.22216866686794,145.85216822154345,-0.00038926857046614564,0.8428288710927553,0.0001349373916485973,0.10156572303246407,210.07433688841138,1
21,5,1,0.06862781149856642,0.07305257521712892,0.04667020334521956,0.002178107880284143,0.00010200356611644049,0.0016637934212336307,0.23109013069033066,0.0001451463901330003,0.008009386004195379,1.4207209933458009e-05,0.0026460808691640848,0.22942633726909703,8.0,1.209,0.05254547687949623,0.08074262381963221,0.12114285714285714,0.18971428571428572,0.01883842202038324,1.9493020533227723,1.934296271818628,0.05243746804020287,0.0027496880544672976,-0.0002347554107339475,1.8172319115706,1.9964502206756187,-9.156690200451862e-06,0.002309814915639101,1.2340076687632207e-05,0.00011935387793100676,0.1792183091050188,3.470082565760576,3.4728892628720294,0.06944154785211494,0.004822128568097568,-0.00012227291531277846,3.3067155536073,3.6796724791127904,0.00010770181744431488,0.008042130420385778,3.253861912169513e-05,0.0024680471779255707,0.3729569255054903,6.0,2.04,0.05807526158014683,0.10285049931318735,0.116,0.19599999999999998,0.01971688801735054,78.73817034700316,762.0192307692307,185.80502372572164,100.72437294694645,222.07297505549838,1.0,1.0,156.25,156.64013793565172,96.8806001965535,47674.89555544205,1.6168369892203058,0.201999798000202,0.0,126523.99914349502,0.0,-1.1512088491598493,0.05966564788699236,17.904235658412087,320.5616545119549,-64.22216866686794,145.85216822154345,-0.006079776181159701,0.742529202559535,3.938288572779905e-05,0.08989030304077118,210.07433688841138,1
22,5,1,0.07468343178002901,0.08219772162247621,0.044291327386405906,0.00196172168164979,-3.783424954210751e-05,0.01669399996059134,0.23109013069033066,1.7119505297839093e-05,0.008641441008276286,-2.600392199299612e-07,0.0028828777684827803,0.21439613072973931,8.0,0.8480000000000001,0.05668895331580216,0.07299519357421569,0.1142857142857143,0.16914285714285712,0.01568470408807659,1.9706332693763586,1.9430042270514924,0.056804198331539,0.0032267169480888177,0.00013115294579637814,1.8172319115706,1.9964502206756187,6.351620266983882e-05,0.002265726692634834,-1.3070473172177345e-05,0.00011943095258792912,0.1792183091050188,3.4904926183395197,3.489589307155261,0.07402947113973218,0.00548036259722844,8.673565331443744e-05,3.3067155536073,3.6796724791127904,7.728732098823224e-05,0.00867308385894521,-1.3232822753798945e-05,0.0027067950817788004,0.3729569255054903,7.0,2.177142857142857,0.056782104758445584,0.10285672642272774,0.10880000000000001,0.1856,0.020075517522425246,82.21662468513854,729.7794117647059,169.4569805366399,72.3447624119224,190.08632907181936,1.0,0.875,109.375,134.411332297541,84.50510801868725,35683.60471273913,1.5905705045405967,0.2419745120180674,0.0,301628.05532037653,0.0,-0.6624485379690012,-0.8357204596962677,11.649435193824868,135.70934033512543,-52.063946492704964,51.49181004003632,0.014559773629611734,0.8439582340027365,0.0003268564761281536,0.10054487498849815,103.55575653274128,1
23,5,1,0.07680256823344112,0.09973523260379942,0.08553315795406599,0.007315921109595202,0.000587405872274883,0.01669399996059134,0.5322582851086469,0.0018836509321795425,0.010436357978935431,6.182363990877592e-05,0.0030999287423777184,0.5155642851480556,6.0,1.0853333333333335,0.05460656325286478,0.07144789324827595,0.11839999999999999,0.176,0.016268751574340917,1.9308284134471734,1.894349106617139,0.10264484840397534,0.010535964903875077,-0.00043783005243588555,1.612502253666928,1.989218118605867,-0.0014954293998511925,0.003642313560899451,1.9614798614080166e-05,0.00020523271472075457,0.37671586493893905,3.4683969749609913,3.460523072014662,0.07923023904298641,0.006277430778808768,0.0001377535096459856,3.2175789973517355,3.6192967887521172,0.0003668440490715676,0.010249213287636533,6.719482030096285e-05,0.0029305213084280806,0.4017177914003818,5.0,2.432,0.053785246922898725,0.09949073684406332,0.10133333333333334,0.18133333333333332,0.017365023582944897,71.70124481327801,836.8055555555555,151.33074189125625,7.8125,133.04208098380002,1.0,1.0,109.375,93.91261937633834,5.524271728019869,1629.854587128484,17.000000000000103,0.13285505513484788,0.0,44942.567089846874,0.0,0.749796840241066,0.18133275008610558,30.76748602133627,946.6381960731228,-185.7513713461994,116.52287441728838,0.008499619304034717,1.8081057163406533,-0.00010188927642795267,0.1875042372899492,302.2742457634878,1
24,5,1,0.09834467280264425,0.1528189014831582,0.1489478240711316,0.022185454295524775,0.00105830740188398,0.01669399996059134,0.5620470928683948,-0.0001752665862638157,0.011981202638455188,1.6499589996288556e-06,0.0033284648947709936,0.5453530929078035,4.0,2.278,0.05251499718636582,0.10590186132498611,0.144,0.22,0.027975415510875776,1.9532957355927518,1.8975410188470014,0.12777562934683942,0.016326611454980895,-0.0005080691515525433,1.612502253666928,2.0762098981679036,0.0009357258024328783,0.0055287921587082985,-1.7276214838212364e-05,0.00029092467333339785,0.46370764450097557,3.5090589583548426,3.5131448734330144,0.09504175098875466,0.009032934431008447,0.0005145818441031559,3.2175789973517355,3.6966396940518873,0.0007223238104061937,0.010165751353041224,-2.6151827740794145e-05,0.0030758971130903723,0.47906069670015183,5.0,1.8544,0.04073148916893991,0.07352979035278775,0.09600000000000002,0.16799999999999998,0.014236701086992737,68.22335025380711,879.4642857142857,156.18621146907054,0.0,265.625,1.0,1.0,109.375,0.0,0.0,0.0,2.9312035904850733,0.3250446936453762,0.0,21884.56154987918,0.0,1.9874164043180649,-0.13741375300426148,39.547462246978235,1564.0017701761685,-185.7513713461994,131.2948439499055,0.018715393036994075,2.406469041337694,-0.00022207194696821165,0.24613886157434475,317.0462152961049,1
25,5,1,0.12932282784808524,0.18359869837290002,0.14919613466075002,0.022259486597708652,0.0006922131368219691,0.01727080713611338,0.5620470928683948,0.0006882608663004837,0.013365646889135666,-0.00010389718553653558,0.003801457359163337,0.5447762857322814,5.0,1.8416000000000001,0.08310261052735914,0.14165913209004954,0.14400000000000002,0.224,0.029402770164514383,1.960143523858415,1.906876267837874,0.1338833023007299,0.017924738634948627,7.944173181448962e-05,1.612502253666928,2.0762098981679036,-0.00036644424587826914,0.005695953001095597,-9.786996525894266e-07,0.000300728765957545,0.46370764450097557,3.5640078325409426,3.55055167825892,0.10273225379806901,0.010553915970430865,0.000722633268858324,3.2175789973517355,3.750445317317689,0.0003599391610528274,0.011436710915826293,-8.542595436181558e-05,0.003480191769130576,0.5328663199659536,6.0,0.6120000000000001,0.06279340911296998,0.09258238113777624,0.10666666666666665,0.17333333333333334,0.018835227524047458,60.47244094488189,992.1875,154.40314773750566,171.56221539138505,300.6340954965022,0.8,0.8,164.0625,208.3932205591151,93.90612000822948,61479.07943841372,2.2191654871999025,0.4033477866290209,0.0,75851.5414039822,0.0,3.501035557466899,0.12317816066443872,44.60222741710975,1989.3586905675766,-185.7513713461994,131.2948439499055,0.0013221840349525542,2.6170880308149567,-0.000149629862178308,0.2644195724368648,317.0462152961049,1
26,5,1,0.17118944411713893,0.20727331989393466,0.14842523949840306,0.022030051720158306,-2.9949959193340777e-05,0.03031130207629344,0.5620470928683948,0.0006619826437823178,0.016335205013408703,6.693332713202843e-05,0.004674288482683249,0.5317357907921014,6.0,1.5613333333333335,0.11723692572467725,0.18000433123977488,0.16,0.23679999999999998,0.04493388296614344,1.9346530407634126,1.918867465456892,0.1528643853431526,0.023367520306339852,0.0013808882459662932,1.612502253666928,2.2509090351145886,0.0011981127695292553,0.006455229658246299,4.3702008040177874e-05,0.000307542480655694,0.6384067814476606,3.5709585109506197,3.5837979681615253,0.14338706259716913,0.0205598497202445,0.0012611081910113345,3.2175789973517355,3.929934301314751,0.0017377390123120987,0.014856165474740134,0.00010464577132232033,0.0043843733909922555,0.7123553039630157,7.0,0.9531428571428572,0.08631421084070696,0.12331892906009198,0.09599999999999997,0.16,0.012701580397796555,62.77929155313352,955.7291666666666,206.38739636536002,217.00694433332976,351.1282039725661,0.6666666666666666,0.6666666666666666,140.625,240.26172072230824,153.4470819026691,115822.54129695847,1.5657627225176254,0.34891835310537334,0.0,78494.0921703173,0.0,0.7827173719633511,0.09866371208393084,49.223389187653495,2422.942043119203,-185.7513713461994,131.2948439499055,-0.020008539685489355,2.8091270270402355,-0.0009206186975426064,0.2788380174894939,317.0462152961049,1
27,5,1,0.1478169216085446,0.2006180796464432,0.13861415020059667,0.019213882635833575,-0.0007633888397877561,0.03031130207629344,0.5620470928683948,-0.001876574573753071,0.015294674202007379,-4.5501279562490985e-05,0.0046982074151718164,0.5317357907921014,8.0,10799.991,0.10720643101485752,0.17890429910292852,0.15466666666666667,14399.568,6775.860325963934,2.03138711999192,2.060438302961602,0.2052614479646541,0.042132262020546395,0.002494142386958642,1.616712285814978,2.384229050859388,0.0030127635823521412,0.005169299837559139,-1.5253793079252066e-05,0.00026569759639647063,0.7675167650444101,3.6547606242276887,3.7097695522795164,0.16225452020394196,0.026326529326611413,0.0016146882267172378,3.4743405504775486,4.034185524442461,0.001060446055177471,0.014127584742587714,-5.678348257778844e-05,0.004419407194629854,0.5598449739649123,9.0,1.0782222222222222,0.08772523180590931,0.12142521651935612,0.094,0.154,0.014636856946949564,53.333333333333336,1125.0,45.55431167847891,0.0,15.625,0.0,0.0,7.8125,0.0,0.0,0.0,-1.8446874524083385,0.22232103156958646,0.0,426.75591502946185,0.0,1.1766925647874251,0.1517817604956041,50.10508441060772,2510.5194837941244,-166.97108876620783,135.8612845586007,0.003143101295665516,2.870334426570927,0.00020468595343327647,0.2846258445248191,302.8323733248085,1
28,5,1,0.1343107490055533,0.1643987195003404,0.09211173102615572,0.008484570992634858,-0.00020482929638482504,0.031525683060703066,0.4128210832318674,0.0010420122487708931,0.016069525551628692,9.688708047447526e-05,0.005155147562637966,0.3812954001711643,8.0,0.485,0.11371467141164943,0.13535833210896622,0.112,0.1645714285714286,0.025354831426489834,2.2548790171246242,2.18036936839672,0.1896681115574564,0.03597399254177172,0.002378762203241542,1.8928011498151802,2.384229050859388,0.0011820111981594003,0.003973358777492579,-1.6173918956923403e-06,0.00016784027448355984,0.49142790104420797,3.869682597699436,3.7878203493823177,0.1768112793370105,0.03126222850079035,0.002031197633876472,3.4743405504775486,4.1399036745287425,0.0020676505763037147,0.015411139385525217,0.00011043467502773833,0.004864896951645106,0.6655631240511939,9.0,1.4008888888888889,0.09035779300373194,0.12963709907079635,0.09999999999999999,0.164,0.016889101130697956,57.3134328358209,1046.875,157.80476466190746,121.70126505779086,210.59965228287217,0.6666666666666666,0.6666666666666666,62.5,95.61229036815531,208.9184491680372,62753.85180335082,0.4576536478655003,0.10617965597791462,0.0,62382.408346785945,0.0,-1.0102070994354357,0.08034940063550663,43.967347319767505,1933.1276303370666,-166.97108876620783,135.8612845586007,-0.020105847005393324,2.449275502034955,0.00039363365017810206,0.24356692540379446,302.8323733248085,1
29,5,1,0.14268956866139676,0.17063558478761523,0.08972554342110253,0.008050673142212156,0.0001870431449118437,0.031525683060703066,0.4128210832318674,-0.0004354044038579885,0.01665316381409705,7.639636551548584e-05,0.005484619180983804,0.3812954001711643,9.0,0.44533333333333336,0.12340599510802261,0.143240927710651,0.114,0.16799999999999998,0.02752671907153041,2.352774435229919,2.28589027130263,0.16036945819549459,0.025718363121916485,0.0018897169952075297,1.8933154006565958,2.4990686272750917,0.002532005613896623,0.0032476323404785367,1.060304152638349e-05,0.00016260661336973815,0.605753226618496,3.923129560018621,3.892111737512316,0.1756563512154918,0.030855153722340208,0.0019397507063304814,3.4743405504775486,4.213902052717881,0.0018992635124684002,0.016316108464575218,8.780387886115719e-05,0.005237734947011449,0.7395615022403321,9.0,1.7146666666666668,0.0926201016656177,0.14029827680644186,0.10200000000000001,0.17,0.02049562955548706,-1.0,-1.0,-1.0,-1.0,-1.0,-1.0,-1.0,-1.0,-1.0,-1.0,-1.0,-1.0,-1.0,-1.0,-1.0,-1.0,-1.0,-1.0,-1.0,-1.0,-1.0,-1.0,-1.0,-1.0,-1.0,-1.0,-1.0,1
30,5,1,0.11947500433073296,0.14707920932120616,0.07844354915225749,0.006153390403602636,-0.00017548396881388959,0.046148454565374475,0.36347293234620903,-0.0005272930825831658,0.013397919678421287,-2.464357847787641e-05,0.004655088650948151,0.31732447778083456,10.0,0.6880000000000001,0.09275671444691007,0.11360131517932895,0.11911111111111111,9599.744,2528.39559409132,2.3759824035621833,2.410426672267444,0.078151884772041,0.006107717093422375,0.000971349895078756,2.2588489991346603,2.551829942668545,0.0012396727118300865,0.0022523654630714983,-2.7329290442641707e-05,0.00014514318101451992,0.2929809435338848,3.9870275096356407,3.986450818291653,0.08124553923333869,0.006600837645315977,0.0007422532565618138,3.8495905639572596,4.213902052717881,0.0006634503780440883,0.012885158984974054,-4.489233285688149e-05,0.004417510441139668,0.36431148876062114,9.0,1.0711111111111111,0.07470244875060278,0.07957356372138064,0.09599999999999999,0.148,0.016924898775776014,-1.0,-1.0,-1.0,-1.0,-1.0,-1.0,-1.0,-1.0,-1.0,-1.0,-1.0,-1.0,-1.0,-1.0,-1.0,-1.0,-1.0,-1.0,-1.0,-1.0,-1.0,-1.0,-1.0,-1.0,-1.0,-1.0,-1.0,1
31,5,1,0.15524458642920663,0.19723062497132246,0.14292226546920467,0.020426773966849814,0.0007028202197785823,0.046148454565374475,0.7297938548728161,0.0003751969497129343,0.020002285702321546,1.8099390540413327e-05,0.006690147378032834,0.6836454003074417,10.0,0.6944000000000001,0.13422312055563448,0.15600374660176206,0.12200000000000001,0.17200000000000001,0.02516419752868921,2.500571258074932,2.467725208821986,0.09503033005608051,0.009030763630567599,0.0013102779554935654,2.33725683346495,2.5923565028237245,0.0010471067169455367,0.001503700316277154,3.4295051324443697e-07,0.00010088837742698683,0.2550996693587746,4.04234399720028,4.086785994496645,0.17819934969028584,0.03175500823004078,0.00187893046964628,3.8495905639572596,4.689453110321425,0.0013278962857317409,0.018973682226560387,1.768070699323341e-05,0.006309609832758507,0.8398625463641656,9.0,1.0764444444444445,0.11689675800766391,0.15011485499955413,0.1142857142857143,0.17371428571428574,0.03139942459720859,64.35754189944134,932.2916666666666,182.66331163281438,23.4375,165.72815184059706,1.0,1.0,140.625,16.572815184059706,182.30096702465676,9491.506125042402,0.09090909090909091,0.23843586075345732,0.0,107588.17120536036,0.0,-4.418843665795226,-0.5192806818306642,47.960577447561164,2300.2169891035123,-206.9043409877183,171.68926784033465,0.004469592042415538,2.510114965451098,0.00035099879074917153,0.235295327981313,378.593608828053,1
32,5,1,0.13712549543610997,0.1852333754799867,0.14790598197702556,0.021876179504588214,-0.0003020655646699223,0.02940096358366165,0.7297938548728161,-0.0006042291534851858,0.019097558502095643,0.00011353405854750585,0.006110192474045042,0.7003928912891545,8.0,0.8340000000000001,0.12315031666821105,0.1451152240413459,0.11885714285714286,0.16685714285714284,0.024524460546121753,2.5413205010345767,2.518087925539477,0.07733048111071314,0.0059800033088143615,0.000902552816697169,2.3467594479411416,2.5923565028237245,0.0007288342070333557,0.0016420596916170728,3.4917183680066578e-06,8.637659690147771e-05,0.245597054882583,4.062169062181523,4.122588859069229,0.1559673086214267,0.02432580135861136,0.000560242202271004,3.911687204693993,4.689453110321425,0.00011194869448975705,0.01822357933795076,0.00010591835744415504,0.005833558420162635,0.7777659056274322,8.0,0.8340000000000001,0.11561518318763353,0.14637242329275946,0.11466666666666665,0.168,0.030819247074757,-1.0,-1.0,-1.0,-1.0,-1.0,-1.0,-1.0,-1.0,-1.0,-1.0,-1.0,-1.0,-1.0,-1.0,-1.0,-1.0,-1.0,-1.0,-1.0,-1.0,-1.0,-1.0,-1.0,-1.0,-1.0,-1.0,-1.0,1
33,5,1,0.10650363081985986,0.15738613351384734,0.14602408236383474,0.021323032630199988,-0.00038313855866613017,0.02940096358366165,0.7297938548728161,-0.00014569391061731302,0.01795155058804688,-1.5771523374119304e-05,0.005982723761876865,0.7003928912891545,9.0,0.44000000000000006,0.11997185833116521,0.13653158076082184,0.13028571428571428,0.1737142857142857,0.025061787677326697,2.5583044314561123,2.55949827376079,0.02564497968247491,0.0006576649829145509,0.00014864951940550802,2.5020738888747722,2.6067307321106052,0.00044216246919596784,0.001045023764282052,-1.1630628200198316e-05,6.470909895278289e-05,0.10465684323583302,4.076856686452365,4.13532920760223,0.14719031095971938,0.021664987640418888,-0.00021866527061972777,3.9991232540909243,4.689453110321425,0.0002661370801583407,0.017072378851272087,-5.424265214671875e-05,0.0057031324621063945,0.6903298562305009,9.0,0.4435555555555556,0.11207094889830078,0.13288674891980573,0.12,0.17066666666666666,0.02708218411617072,54.75935828877005,1095.703125,122.14450870120758,7.8125,133.04208098380002,1.0,1.0,93.75,5.5242717280199045,82.86407592029855,1438.1069886427892,0.06666666666666668,0.3423485107839781,0.0,28143.389303566233,0.0,-3.772531778681616,-0.9904855790822931,80.36726694603712,6458.89759637559,-243.86684684792039,367.839459605779,0.011257412079763348,4.096030214453337,0.002247822394371568,0.36182645585485773,611.7063064536994,1
34,5,1,0.12004186599440086,0.1638700951884887,0.145578011091709,0.021192957313417752,-0.0011228209552208864,0.02940096358366165,0.7297938548728161,0.0009541714631912093,0.01874718016085634,-2.5212671697946777e-05,0.006252151986064148,0.7003928912891545,9.0,0.7680000000000001,0.11879679683535345,0.1286953679674513,0.124,0.182,0.027684618951917966,2.5692997082033546,2.5674436068647495,0.022982180107860184,0.0005281806025101243,-8.886096575313644e-05,2.5316111014447467,2.6067307321106052,-1.0590845758207123e-05,0.0012776567144481951,2.768126194829338e-06,8.10845320736512e-05,0.07511963066585858,4.114465415368497,4.148749102212237,0.14349335497056107,0.020590342920707445,-0.0011320202905620346,3.9991232540909243,4.689453110321425,0.0008815814519270974,0.017983874602221596,-2.0301650369864792e-05,0.006034885067290172,0.6903298562305009,9.0,0.760888888888889,0.11011842000053128,0.12044992322607397,0.122,0.176,0.025473452719167202,56.36697247706422,1064.453125,176.1606149394903,46.875,178.1524101717403,1.0,1.0,164.0625,121.53397801643786,33.14563036811944,12655.341500056551,3.666666666666664,0.1174674027957242,0.0,89557.06502661729,0.0,3.534375756241876,-0.01963770424942292,82.32530970348601,6777.456617774888,-243.86684684792039,367.839459605779,-0.002760829946089468,4.2181867025132345,-0.0005333114272911297,0.37688300441673867,611.7063064536994,1
35,5,1,0.11314945425927175,0.14518466939526464,0.11516902458812818,0.013263904224580873,0.000705347532117013,0.02940096358366165,0.641314171914338,-0.000603137615066475,0.015449537875063224,-1.786578895531716e-05,0.005352563073470423,0.6119132083306764,8.0,0.8460000000000001,0.10286299240415556,0.12838174791898352,0.12,0.178,0.02536829476258118,2.571966446500926,2.5880774127635005,0.06063280369536014,0.003676336883960078,0.0005241067572356456,2.5316111014447467,2.7785243001581423,0.0007914368449598234,0.002165633650931249,9.848223592263487e-06,9.638113613310038e-05,0.24691319871339568,4.115737104459126,4.150534896300366,0.1278112312103939,0.016335710823516765,0.0011469074696091842,3.9991232540909243,4.607449007480547,0.00016580295772384847,0.014777689464548315,-4.339505783684805e-06,0.005250456376641639,0.6083257533896225,8.0,1.201,0.09208640802546109,0.12398796429058256,0.124,0.18,0.025552155610209626,62.07852193995381,966.5178571428571,117.64896386700391,78.125,188.79759333741518,1.0,1.0,93.75,121.53397801643784,55.24271728019903,21092.235833427567,2.1999999999999997,0.2957704821058858,0.0,34962.6392564859,0.0,1.6002453557489742,0.16101532768326385,77.29077942499134,5973.864584122665,-243.86684684792039,367.839459605779,-0.00251292599672925,4.019313652839853,-0.0005231262717510292,0.3715998994469383,611.7063064536994,1
36,5,1,0.11515194479082516,0.1504932233867821,0.11874774805294068,0.014101027667644676,0.0001545871318038317,0.02613278120818702,0.641314171914338,-0.0007473677859496053,0.015976226522216877,3.950676243934699e-05,0.0054146647162274944,0.615181390706151,8.0,0.8500000000000001,0.09792690916817953,0.13156457985737646,0.11428571428571428,0.1737142857142857,0.028184273934626164,2.6008019854100857,2.6413306128963314,0.09730086492042724,0.009467458314263226,0.0012234730785597133,2.5316111014447467,2.789880423569664,0.0010713030753963866,0.002056893943514357,1.0528604233412768e-05,0.00011237794344431086,0.25826932212491727,4.222011387513399,4.205194619211165,0.1339109562986239,0.017932144216811958,0.0012850432803376232,4.002667185615166,4.607449007480547,0.0003019380323792361,0.015142167557592245,3.66682035790535e-05,0.005244630474541991,0.6047818218653811,8.0,1.207,0.08848624629558088,0.1286536455287196,0.1142857142857143,0.17371428571428568,0.028409586694878048,60.34285714285714,994.3181818181819,174.15491049993298,131.69567191065923,319.0715290103459,1.0,1.0,140.625,225.60682059725053,85.69568250501304,60738.077288948305,2.632650957462798,0.3658982802780827,0.0,185357.97307987337,0.0,2.429884908536626,0.12134251472447702,70.02408981214876,4903.373154019875,-215.15439677797738,203.87996199428264,-0.0035451982396260684,3.7456337333603256,-2.7329069009697274e-05,0.3529808350066543,419.03435877226,1
37,5,1,0.09468059665719783,0.14336775469127758,0.12025096156357928,0.014460293756965422,-0.0004862416982751093,0.02613278120818702,0.641314171914338,9.161268121537675e-05,0.015820805723173396,4.997699571853504e-05,0.005373669224922093,0.615181390706151,9.0,0.7733333333333333,0.08960079440385625,0.12193488562229,0.12571428571428572,0.192,0.02883444169514427,2.764769053919648,2.706133071019639,0.10827728131019448,0.01172396964792699,0.0014385452292742403,2.534722596100357,2.831667765815214,0.0009017379544050861,0.0020730854762655046,1.5285041148079455e-06,0.00010578487026699274,0.29694516971485685,4.275783367889135,4.2590121246480415,0.11851001172649213,0.014044622879413302,0.0008895421546146943,4.002667185615166,4.607449007480547,0.000973986820433124,0.0148892767187232,8.885989547677923e-05,0.005123072524073767,0.6047818218653811,9.0,1.4044444444444446,0.0794563490832078,0.11821868809364637,0.10666666666666667,0.16533333333333333,0.028996486636194637,64.23791821561338,934.0277777777778,209.86129494807744,131.69567191065923,319.0715290103459,1.0,1.0,218.75,225.60682059725053,85.69568250501304,60738.077288948305,2.632650957462798,0.3571003451970004,0.0,110254.13953299006,0.0,1.1381050124576437,1.3044717024605093,69.05812442280343,4769.0245487954,-215.15439677797738,203.87996199428264,-0.02021439106658405,3.6025876907621117,-0.0011636786248641008,0.3349025205742772,419.03435877226,1
38,5,1,0.08356898820389563,0.13221724169496354,0.12162535823409562,0.01479272776557209,-0.0010967753227814684,0.02613278120818702,0.641314171914338,-0.0011421551966554523,0.01463464260187836,-1.4586807236110925e-05,0.004920631097980429,0.615181390706151,11.0,7854.315636363637,0.07990765208575171,0.1122668916412895,0.12622222222222224,0.18133333333333335,0.029867384811048076,2.785602148733494,2.7693642885748138,0.07474934485988795,0.005587464556982457,0.000836555440006835,2.5510290630610113,2.8363855408530245,0.0008100693123813757,0.002274933936532125,-2.7122945658954178e-05,0.00010048445579996065,0.28535647779201323,4.295868899850646,4.307741883205508,0.06906163963137034,0.004769510068573263,-0.0002419833830196039,4.19603052386174,4.607449007480547,-0.0002918336160618484,0.013768062582622231,-4.046648233148227e-05,0.004677405453708909,0.4114184836188066,10.0,8640.315200000001,0.07659584621210662,0.10434725847111644,0.10400000000000002,0.15466666666666665,0.026863080498085213,63.69668246445498,941.9642857142857,187.26068911753882,131.69567191065923,319.0715290103459,1.0,1.0,218.75,225.60682059725053,85.69568250501304,60738.077288948305,2.632650957462798,0.30349013657056145,0.0,46450.06662199677,0.0,-0.8842870056330805,-0.34639491012204215,68.4726069704698,4688.497905332429,-215.15439677797738,203.87996199428264,0.015970582450244533,3.681316011503379,-0.0006974195972006341,0.3472394021971901,419.03435877226,1
39,5,1,0.07643607477549146,0.10946103235028487,0.08649682928242747,0.007481701475913403,0.0003224682712495559,0.014134670156615469,0.39900542284680457,5.982548576652091e-05,0.011505446991871657,-1.0373909808993965e-05,0.003821343189867985,0.3848707526901891,10.0,0.4072,0.06831571462477612,0.08601499201539164,0.142,0.19799999999999998,0.02449716013576303,2.7859639325776215,2.7837224421062836,0.045562392587766426,0.002075931618321753,-0.00026382762929069107,2.684350517428981,2.8363855408530245,5.615429620899707e-05,0.0020642145811031304,5.905823777583216e-06,0.00012288134191719216,0.15203502342404374,4.295102230391901,4.299934655027863,0.06749421434497438,0.004555468970045346,5.578445073833041e-05,4.1338897079373025,4.4828219786256405,0.00012069742644292836,0.010642778331041514,-9.77576412970101e-06,0.0036884926079906546,0.348932270688338,10.0,0.6944,0.07054351785891484,0.09033433028135658,0.13119999999999998,0.18239999999999998,0.03181697599906665,-1.0,-1.0,-1.0,-1.0,-1.0,-1.0,-1.0,-1.0,-1.0,-1.0,-1.0,-1.0,-1.0,-1.0,-1.0,-1.0,-1.0,-1.0,-1.0,-1.0,-1.0,-1.0,-1.0,-1.0,-1.0,-1.0,-1.0,1
40,5,1,0.06713194115957788,0.08776904366512202,0.08303025663619266,0.006894023517072015,-6.49218300961086e-05,0.0054786452526092546,0.39900542284680457,0.0001899476046500764,0.009497659645606752,-2.738318846054841e-05,0.003421976293007782,0.3935267775941953,8.0,0.8200000000000001,0.0664322758475339,0.0708877067615912,0.13714285714285715,0.18971428571428572,0.019304128864395483,2.8173314418428808,2.793826669339455,0.04716136299169975,0.0022241941592348667,-0.0001642990417932609,2.684350517428981,2.8363855408530245,8.51712379190008e-05,0.0020529896912065866,-1.0006662807966749e-05,0.00011657205517908959,0.15203502342404374,4.287332158417516,4.2890630047547145,0.05981069900910278,0.0035773197159574884,-0.00021498900099513386,4.1338897079373025,4.4828219786256405,0.0002565851349105253,0.008864068253219653,-3.318190371484157e-05,0.0033428290102983866,0.348932270688338,8.0,0.8260000000000001,0.0703534684404441,0.07389949519082661,0.1376,0.18239999999999998,0.02352525311360109,63.2967032967033,947.9166666666666,191.0826700817098,0.0,187.5,1.0,1.0,187.5,0.0,0.0,0.0,2.1159737814486306,0.35180299032541773,0.0,109247.95799252277,0.0,-1.6405837714353915,-1.2027898088718343,61.89567703285727,3831.074835355775,-200.2922913811095,174.5536884077391,0.015765418247631547,3.2118093352057304,0.0003739117789386107,0.31399062212896833,374.8459797888486,1
41,5,1,0.06672967857007285,0.09072984035658341,0.08779336999747428,0.007707675815513417,-0.00016983236806602324,0.0054786452526092546,0.39900542284680457,-0.00028113486489899427,0.010132081359430617,3.380478488382429e-05,0.0034671716489255208,0.3935267775941953,6.0,1.0533333333333335,0.07339582453666942,0.08829367832136092,0.12000000000000001,0.17066666666666666,0.021250783640127238,2.8085481287723244,2.79014644981029,0.0450791897789039,0.0020321333511224334,0.00011082549211873426,2.684350517428981,2.8363855408530245,-0.00011574331523978207,0.0019903096032045133,-6.8594861977873865e-06,0.00011391458376122353,0.15203502342404374,4.277931212483546,4.288360439018347,0.0656430354171854,0.004309008098781856,-5.582109475444803e-05,4.1338897079373025,4.4828219786256405,-0.00040373653429697973,0.009406932873280314,1.8267557829117672e-05,0.0033846567605623533,0.348932270688338,6.0,0.5826666666666668,0.08199059207156563,0.09300845598883016,0.128,0.172,0.028670218409427878,67.36842105263158,890.625,201.3140426050801,39.0625,168.64869644471017,1.0,1.0,187.5,27.62135864009951,182.30096702465676,15819.176875070669,0.15151515151515152,0.32097576632964214,0.0,199377.35776883762,0.0,2.581601609038912,-0.24261801318151566,56.58351938818554,3201.694666353169,-200.2922913811095,143.06683837331053,0.017525755184277094,3.2543501729857596,-0.00033812995491023726,0.32057222797503443,343.35912975442,1
42,5,1,0.0756198237166284,0.10693222661154184,0.09671402423880515,0.009353602484464192,-5.6401615504128714e-05,0.0054786452526092546,0.39900542284680457,0.000990879679886056,0.011161153487740301,4.285006232606547e-05,0.004288901658022124,0.3935267775941953,6.0,1.0666666666666667,0.10816664223495537,0.11728815750903032,0.128,0.184,0.030905589648523624,2.794488811345179,2.7535571201358366,0.08139556904649427,0.006625238660402616,-0.00032835511423493516,2.4566590610499914,2.82375787509013,-0.0012177342460866843,0.003325471764142118,-2.026713840720303e-05,0.0001202617961088665,0.3670988140401388,4.253904333446166,4.269276200438406,0.07193209397906294,0.005174226144212744,-0.0003580737709374492,4.1338897079373025,4.4828219786256405,-0.00022564505045460185,0.010620427093739773,1.46816094671894e-05,0.004581621230213788,0.348932270688338,7.0,0.5154285714285715,0.0955848375166047,0.09892180383114343,0.12266666666666665,0.168,0.02341637965599638,70.2439024390244,854.1666666666666,162.54673473257535,93.75,132.58252147247765,0.5,0.5,140.625,66.29126073623883,143.6310649285174,29912.625363769985,0.46153846153846173,0.19527436047646943,0.0,72829.65949804038,0.0,0.10653838383627218,-0.5133937772452924,50.51103995918824,2551.3651577587107,-200.2922913811095,143.06683837331053,0.0033705355631950336,2.931590235339642,0.0019194241670905353,0.2949925427744621,343.35912975442,1
43,2,1,0.09633554797658438,0.263003285357912,0.29937893561457346,0.08962774708971491,-0.0029334475996162118,0.004358364082862522,0.9846235258170923,-0.00049818655401791,0.022914228158235437,-0.0002945504735880528,0.007283328220896012,0.9802651617342298,5.0,1.264,0.07338638650177921,0.17005789695512058,0.2,0.3,0.09928617086832585,0.9854250699139119,0.900330621518299,0.14070846892743988,0.01979887322790431,0.0016816526880816748,0.7092874422971865,1.0739443146730268,0.0008446378375719266,0.0034545377708306377,2.6499102393881997e-05,0.0002080736435040914,0.3646568723758402,0.751992497087016,0.7741675676057744,0.06824569485538096,0.00465747486629377,-0.00041188013772649,0.6593158875469232,0.9589710990848546,9.752824047575964e-05,0.007820317157362722,-6.891353096304016e-05,0.002856551193922804,0.2996552115379314,3.0,1.0693333333333335,0.025630246730677857,0.08006480740754825,0.19733333333333333,0.2826666666666666,0.04109724644519867,65.55256064690028,915.296052631579,175.48656142564658,177.453674990831,266.1194493043996,0.7692307692307693,0.6923076923076923,125.0,184.59206458283265,164.15382953869496,95194.95189737884,1.1245065990941132,0.05752746936662256,57531.29733522574,173261.86220444902,0.33204824537403854,0.9671094470426549,-0.1909315944700792,28.78111915709576,828.3528199349445,-106.38138602136574,118.31073392591532,0.031879239370625354,2.1108771673747517,-0.0014086532864330992,0.21775299676569593,224.69211994728107,1
44,2,1,0.05213119526019339,0.12962585175285987,0.18704538869292503,0.0349859774312874,-0.0018831697023833057,0.004358364082862522,0.9245729936909317,-0.003479138872552528,0.012885178320915578,-0.0002248008501218858,0.004927223086221773,0.9202146296080692,7.0,0.5222857142857144,0.04575521233729522,0.04345717528010617,0.11466666666666668,0.17600000000000002,0.009150659628869136,0.9854250699139119,0.9481552172655978,0.10371569218306916,0.010756944805013153,0.00042942302171013565,0.7092874422971865,1.0739443146730268,0.0005757445124989801,0.0034503409960122337,-4.1744482562790465e-06,0.00016229424089279893,0.3646568723758402,0.7428546165169052,0.7460256229700446,0.040237784781516586,0.0016190793241236477,-0.0004775180290081637,0.6769804007736325,0.9337571059953651,-0.0009349805944065653,0.0047306539518885745,-7.323674809775321e-05,0.002074183879782494,0.25677670522173257,2.0,0.104,0.017176031883391563,0.017645584840964568,0.088,0.136,0.0026337329360719107,63.933402705515086,938.4765625,157.46294342557582,151.35674721559639,237.66628449170258,0.8181818181818182,0.7272727272727273,125.0,167.81214169975755,152.37313302675255,80330.71827356744,1.1013236937924897,0.19988007195682592,22842.331018663815,129824.6481559762,0.17594756730031869,2.4491122826889287,0.05885426897496817,28.571462817080782,816.3284875078297,-127.93695923196576,118.31073392591532,-0.01026892245927536,2.0120790184527753,0.00017258169871171817,0.20591419764710175,246.2476931578811,1
45,2,1,0.02948876691638378,0.03566153633064461,0.02224088663294623,0.0004946570382195664,-0.0001105833944199693,0.003991473859307657,0.0922096149590578,-0.0003890894545531917,0.003863030559865231,3.962306282466041e-05,0.0014203997814324898,0.08821814109975014,7.0,0.5268571428571429,0.03300372527335234,0.03372637354275393,0.11466666666666668,0.1733333333333333,0.006829608489132417,0.9781577370631306,0.9394910667900177,0.1028767758435209,0.010583631007958045,-0.0014385206554330626,0.7268059914864824,1.0739443146730268,-0.0012762174309664878,0.0012983973329715691,-2.894952561676133e-05,8.522116670478945e-05,0.34713832318654436,0.7267603914599172,0.7122329786781123,0.03713281838883324,0.0013788462014980723,-0.0005084515734495168,0.6308364909392037,0.7618847093978256,-0.0005463177491567411,0.0014167703391085623,2.1472725008058262e-05,0.0005775054926127109,0.1310482184586219,2.0,0.128,0.01449131228197631,0.018109734659808585,0.088,0.144,0.0027800957149700114,63.50606394707828,944.7916666666666,162.76687487187175,159.30652426325642,248.69450804819422,0.7777777777777778,0.7777777777777778,140.625,173.76729086182124,164.20711219202548,89641.65508003136,1.0582202472364046,0.2117746717492588,16077.243088075307,146700.91990059314,0.10959197187699642,2.603819113095671,-0.004454555022657391,22.828767409997436,521.152621459761,-127.93695923196576,55.68739514923917,-0.0036105962424674287,1.5931238517052322,-0.0004982652319594861,0.16843943270117553,183.62435438120494,1
46,2,1,0.03079745075223827,0.03536926924380808,0.02180826554420218,0.000475600446046436,-6.483749291786518e-05,0.0028476815235815274,0.08419096302936807,-0.000347385074870748,0.0038390430156490995,1.239214272856109e-05,0.0014641782456995861,0.08134328150578654,7.0,0.12342857142857143,0.037110295972605636,0.038360662251856574,0.128,0.17333333333333334,0.006026524584700335,0.8547180683529181,0.8449551647154369,0.1290724792303403,0.016659704894666626,-0.0018453500056926616,0.6172583864658767,1.0155611542646938,-0.0016650209522545373,0.0006489191692663766,-3.6046119586474052e-06,1.8481189352224277e-05,0.3983027677988171,0.683670858856961,0.6811190159578622,0.0444996194262599,0.0019802161290819673,-0.0006283411740425511,0.5939906031020556,0.753409811312673,-0.0006685083326007135,0.0014205637646024702,3.776397250162174e-06,0.000546038721874167,0.1594192082106174,3.0,1.0853333333333335,0.01468876542553114,0.017999020495420532,0.09599999999999999,0.16533333333333333,0.0030859768668673546,62.713567839195974,956.7307692307693,162.51315661350375,144.62494377611665,308.34288514805814,1.0,1.0,140.625,217.45929348726298,115.18808792357736,78692.8754187259,1.8878626896866144,0.24131274131274133,0.0,275451.4287844187,0.0,2.3374575710600864,0.09376669069478734,20.613537749804582,424.91793856261853,-127.93695923196576,50.531314958913875,-0.0006871446639995245,1.3324949989572474,-0.000115484882103033,0.13756147983860428,178.46827419087964,1
47,2,1,0.0306033967638495,0.0421798740393781,0.0434805397854663,0.0018905573400355181,0.00019854190846830085,0.000715465191389316,0.22840171619393307,-0.00015983962323447778,0.006495811768427476,-3.3061427994222666e-06,0.0020546784524174935,0.22768625100254375,7.0,0.1325714285714286,0.050925741362714085,0.05961660313298779,0.1312,0.17919999999999997,0.01276812911036895,0.7258876692092957,0.745317286402162,0.12587782853962562,0.015845227717851386,-0.0017858082174772225,0.5912744721267061,0.9775614700410912,-0.0015257325918502992,0.0009721868034257209,7.891444328261253e-06,2.837130133131601e-05,0.38628699791438503,0.646683227818073,0.6506157918429303,0.04059763623564319,0.0016481680679216089,-0.0005221175784131487,0.5887748807642156,0.7337522663739146,-0.0005562117594592642,0.0022238155269919927,3.7176758736403442e-06,0.0006992357969746158,0.14497738560969897,4.0,0.8500000000000001,0.02116013685814755,0.027935782421230376,0.11599999999999999,0.184,0.006129202448219176,63.822714681440445,940.1041666666666,161.22715304337612,0.0,359.375,1.0,1.0,132.8125,0.0,0.0,0.0,2.301842355089351,0.35473572188719404,0.0,40760.44931638195,0.0,1.7746013064048578,0.023246604265874327,23.442366218910898,549.5445339415348,-127.93695923196576,66.35900132838398,-0.004084118903888276,1.2749221638868606,0.0003772975603495735,0.11734926722789504,194.29596056034973,1
48,2,1,0.029446064233994897,0.04291540516679048,0.0449325655559523,0.002018935447439951,0.0001191863483571275,0.000715465191389316,0.22840171619393307,5.699084847149817e-05,0.006917199992912968,-2.7719041124350376e-06,0.0021529796496266686,0.22768625100254375,6.0,0.1466666666666667,0.059376080942701914,0.07964853801077765,0.152,0.21599999999999997,0.02023903280942609,0.6180487630889955,0.6676219632206047,0.07837729111358202,0.006142999762303183,-0.001003595765150643,0.5912744721267061,0.8535211335655628,-0.001086544194804313,0.0010423896700829686,6.448120083636655e-06,2.9777585356186773e-05,0.26224666143885667,0.6228528826864168,0.6253213603583444,0.026913222255904694,0.0007243215321957237,-0.0002906373995469869,0.5887748807642156,0.6871183760140434,-0.00033085738312126284,0.0023504988765507776,-2.598673055077596e-06,0.000715472235610129,0.09834349524982777,5.0,0.7152000000000001,0.02091331125013198,0.02931557072823916,0.1216,0.192,0.0064639575918164285,67.5,888.8888888888889,192.41876392357514,122.58960724937313,302.0384305707912,1.0,1.0,203.125,213.28745030670075,141.01027469459254,94485.66715044327,1.5125667315282514,0.3751406777541578,0.0,49793.556446206974,0.0,0.3503424883943763,-0.17192818644179556,21.117054718316762,445.92999997638424,-110.37967007504295,66.35900132838398,0.010540757071243304,1.1781398229488236,0.00016736348756582562,0.11073275338098192,176.73867140342693,1
49,2,1,0.03266149071732963,0.04617168272913878,0.0468577486077309,0.002195648604585307,-2.806210865064982e-05,0.000715465191389316,0.22840171619393307,6.993689282112598e-05,0.007594061330688569,-4.4609535705283735e-05,0.0023552384886246403,0.22768625100254375,7.0,12342.445714285717,0.06114312340448748,0.0787503000050971,0.15360000000000001,0.2144,0.02040454353762507,0.6096578739263485,0.6197743956205478,0.035314636896563695,0.0012471235791361376,-0.0003624296152756462,0.5844435742119745,0.7249693469321089,-0.0004202575183113744,0.0010752176863332197,1.3803862869451085e-05,3.441456798828902e-05,0.14052577272013445,0.6042865635799838,0.6106937505583905,0.019517400353820127,0.00038092891657129797,-0.00012846784869640097,0.5830820620907533,0.6628707397348885,-0.00011494297203734188,0.0025608837061841597,-1.1579834389115889e-05,0.0007717308824076222,0.07978867764413522,5.0,17279.388800000004,0.02498366683553277,0.04158043139697225,0.176,0.248,0.010873935530047474,-1.0,-1.0,-1.0,-1.0,-1.0,-1.0,-1.0,-1.0,-1.0,-1.0,-1.0,-1.0,-1.0,-1.0,-1.0,-1.0,-1.0,-1.0,-1.0,-1.0,-1.0,-1.0,-1.0,-1.0,-1.0,-1.0,-1.0,1
50,2,1,0.026242341599126882,0.04526106251435369,0.04791195715012272,0.0022955556379551955,-0.00011159112192271792,0.000715465191389316,0.22840171619393307,9.32603550002263e-05,0.007873178516631501,-1.6153297538565198e-06,0.0024620683528768657,0.22768625100254375,7.0,0.13028571428571428,0.06563035774222256,0.0835111675325435,0.1472,0.20800000000000002,0.023142696940993808,0.6096578739263485,0.6150708008740613,0.024594716327812988,0.0006049000712455908,0.00023713382024880285,0.5844435742119745,0.664286805326715,0.00014835304461710528,0.0008424595149724558,2.566436813307658e-06,4.338454961222681e-05,0.07984323111474056,0.6050292815348512,0.6088249740820851,0.017264197273877756,0.0002980525075113681,4.0956702946009736e-05,0.5830820620907533,0.6628707397348885,9.313400846341589e-05,0.002654065699405148,3.0524362550287768e-06,0.0008054853143125426,0.07978867764413522,6.0,0.14666666666666667,0.024130465296028875,0.0343193331754457,0.1728,0.2432,0.010198450031215296,69.01155327342747,869.4196428571429,175.9468112046556,134.91895715576814,228.467209080428,1.0,0.8,125.0,161.53559979150106,109.15155747858111,55392.129087999936,1.4799202459680825,0.2465888541837909,0.0,345275.69772604224,0.0,0.12862961521609206,-0.053617100003878954,19.071058771945548,363.70528268300126,-110.37967007504295,66.35900132838398,-0.002477904946377059,1.0739921069974503,8.020793717627876e-05,0.10240608155646683,176.73867140342693,1
51,2,1,0.01992453696816042,0.030776477621361775,0.0298836819987475,0.0008930344498022653,-0.0001017404439571611,0.002804594233497792,0.1261404740139917,-6.645851204020797e-05,0.005445691705597293,2.4111828714081137e-06,0.0018446861253822158,0.1233358797804939,6.0,0.12000000000000001,0.05043317350919895,0.060723099482845745,0.14079999999999998,0.1984,0.014721905529413454,0.6154399548837233,0.6189806466635576,0.02486422103244547,0.0006182294875503036,0.00010239729900763365,0.5844435742119745,0.664286805326715,-0.0001023575039294763,0.0009173493057539457,-4.2360161404279374e-06,3.6661630141847034e-05,0.07984323111474056,0.6030996766738173,0.6053521251675157,0.0137680365837741,0.000189558831372142,2.3083131170418756e-07,0.5830820620907533,0.6448043745970196,-5.441004712280623e-05,0.0019234467053585152,-6.524120137506191e-06,0.0006273173805412599,0.06172231250626625,4.0,0.148,0.02222346228419303,0.031169002767632875,0.19199999999999998,0.26666666666666666,0.010532813693969622,65.54765291607397,915.3645833333334,148.56879244784122,12.757759076995718,63.78879538497859,1.0,0.6666666666666666,54.6875,39.32205435036848,22.702598664274337,2804.540032588715,1.7320508075688774,0.18216595318335002,0.0,83799.46351962956,0.0,-0.42667867892291245,-0.47272341059033385,14.329145708813297,205.32441674440253,-69.37575367222519,40.16404842581768,0.007916754192243722,0.8553483654207632,7.595590716848271e-05,0.0861090521297348,109.53980209804287,1
52,2,1,0.0187598950206778,0.02852406771122835,0.027690821790697207,0.0007667816114441513,-5.956333617152675e-05,0.002804594233497792,0.1261404740139917,0.00013784214412687276,0.004970253232093097,-7.012788862962603e-06,0.0017954672848337829,0.1233358797804939,6.0,0.10933333333333334,0.04260422807725065,0.045197613046043916,0.1568,0.20800000000000002,0.010892371540909062,0.5999287545762579,0.6099240304224051,0.03210982160043499,0.0010310406432117616,-0.00016709651262613307,0.5415821022829161,0.664286805326715,-0.00022243420854654977,0.0009964122382962299,-5.123881235986431e-06,4.027240883431262e-05,0.12270470304379888,0.5985274911440982,0.6016126147871129,0.014547530217462839,0.00021163063542799438,-7.456172555554179e-05,0.5796338131896603,0.6448043745970196,-1.7810242009535608e-05,0.0017537668029135387,9.133315907420998e-06,0.0006131078862610845,0.06517056140735922,4.0,0.14800000000000002,0.01798598904389659,0.02641883315665064,0.21599999999999997,0.288,0.011897731457851713,66.72985781990522,899.1477272727273,131.46688593371124,129.02456691338864,187.98764711743695,1.0,0.75,46.875,124.35747952915317,86.77679645126196,33902.00605350481,1.4330729482390876,0.20232675771370764,0.0,24173.655942802696,0.0,0.15450302073984407,-0.0902302154880023,13.591436180884983,184.72713745906938,-69.37575367222519,40.16404842581768,-0.006623707099178523,0.8284346742383174,0.00015769553355698127,0.08670860773847093,109.53980209804287,1
53,2,1,0.023745817686336976,0.02992568251620318,0.022294796686207513,0.0004970579592793295,6.475024557496352e-05,0.002825927450961197,0.11188572480972471,0.00010603645894264022,0.0037801765969563473,1.027928262647262e-05,0.001492055981596421,0.10905979735876352,7.0,0.52,0.028914566047452094,0.033130566390429626,0.15360000000000001,0.22080000000000002,0.009085222807368527,0.5874618266655922,0.5846665937211414,0.06097525335423848,0.003717981521613571,-0.0008417481232730525,0.4757449153518955,0.664286805326715,-0.0006066205536760164,0.0009505458327977055,-3.5055182539249034e-06,4.240877635566209e-05,0.18854188997481952,0.5923739682408593,0.5937720137438914,0.019656822730394895,0.00038639067985416934,-0.00025486139883673127,0.557071912373468,0.6448043745970196,-0.00016687400153368078,0.001522467070088987,8.467051349600925e-07,0.0006597897228238437,0.08773246222355158,3.0,0.144,0.012641415056011388,0.019790494512071266,0.16,0.24799999999999997,0.00590168420762226,68.90701468189233,870.7386363636364,121.77860937132279,35.58763116853242,89.4181495489031,1.0,0.75,62.5,62.68283803078599,71.33586862402213,14047.740559849162,0.8787001439788699,0.31341412452987877,0.0,21917.55422864735,0.0,0.05115723063231182,-0.13678754633806403,14.74597759171124,217.44385513525,-69.37575367222519,40.16404842581768,0.002558901379313564,0.9419324586643836,-0.00011047239156757473,0.10518433951774016,109.53980209804287,1
54,2,1,0.029395121803802278,0.06502220083983068,0.08896022157520066,0.007913921022708796,0.0008895739761791754,0.002825927450961197,0.33969700077125464,0.0007083078934149655,0.009524379572116173,-7.460607615170455e-06,0.0032236878456785,0.3368710733202934,7.0,0.9417142857142858,0.060979515218167156,0.08323309772868374,0.20800000000000005,0.2773333333333333,0.010120145891907253,0.5730576131948257,0.5578005759479382,0.05371250835568496,0.0028850335538595268,-0.0004515858018028747,0.4757449153518955,0.6553413994287153,2.3713602659922866e-05,0.0019207794856033987,2.4125982469563183e-05,4.484594934323909e-05,0.17959648407681977,0.5904635578959568,0.5964881342304866,0.03480404869289227,0.0012113218054172162,0.00014395284920603666,0.5554404125978801,0.7084316218285736,0.00023568513993083942,0.00335043747703364,6.479917974948115e-06,0.001146039939419045,0.15299120923069343,3.0,2.058666666666667,0.03776298092938424,0.06457963403193119,0.128,0.22399999999999998,0.007563639922821684,65.22292993630573,919.921875,167.27463777679918,23.4375,212.2355891750957,1.0,1.0,132.8125,149.15533665653737,193.3495104806966,90600.7402844957,0.7714285714285714,0.4078857919782461,0.0,31116.234479266364,0.0,0.10815840087038059,0.1459169123708242,16.900837272125415,285.6383004988636,-69.37575367222519,54.801649575387415,-0.0026135612072753786,1.0352052317378633,0.00024498452778611116,0.1097180809022627,124.1774032476126,1
55,2,1,0.05206235342081939,0.08937819729099877,0.08712813304424048,0.00759131156777487,0.0006672210628736649,0.006861844805489462,0.33969700077125464,0.00011912446819931458,0.01063939691725278,-1.3826814468721019e-05,0.00375500085271891,0.3328351559657652,8.0,0.8360000000000001,0.0722736353975789,0.08685291703793341,0.192,0.2514285714285714,0.010852778205078592,0.5730576131948257,0.5891391757303346,0.09805674689120385,0.009615125610885615,0.0009020411894027552,0.4757449153518955,0.767808229000045,0.0007493671194944831,0.0020875165706705405,1.283232049632127e-06,6.769135325351364e-05,0.29206331364814947,0.5919650657400428,0.6147849697554354,0.047974961575959395,0.00230159693821478,0.0005160413476880041,0.5554404125978801,0.7084316218285736,0.0002822906115026206,0.003713134040607406,-4.970657766925277e-06,0.0013069346223636,0.15299120923069343,5.0,1.2896,0.03400132458633696,0.05139615751125128,0.112,0.19199999999999998,0.006115491505238238,56.470588235294116,1062.5,128.8470508005519,0.0,187.5,1.0,1.0,125.0,0.0,0.0,0.0,1.9829476968653075,0.23540489642184556,0.0,8725.936982823248,0.0,0.7029295395558528,0.3743893912090121,20.12591110227204,405.0522976965568,-91.11836933240882,54.801649575387415,-0.004999201248797309,1.1422351695395996,-0.0005420250165187093,0.11887373490169488,145.92001890779625,1
56,2,1,0.06138868368300461,0.09837164642615193,0.08341401947477958,0.006957898644938907,6.609998410926305e-05,0.00791305640116408,0.33969700077125464,3.254725324799065e-05,0.011246436800007453,3.862395283549236e-05,0.003932201756029579,0.33178394437009057,7.0,0.5337142857142858,0.09414055211577312,0.11185397311448797,0.18933333333333335,0.24266666666666667,0.015182110824782692,0.657668107419368,0.646679639281731,0.13521530098442552,0.018283177620308788,0.0018505494979453925,0.4757449153518955,0.8949494979236404,0.001485800516721838,0.002054425536116067,2.6959845787935762e-05,7.155887243412617e-05,0.4192045825717449,0.6587506435091788,0.6366645340475284,0.052416053688262694,0.0027474426842508375,0.0006298560174868445,0.5554404125978801,0.7086933454868358,0.000488637653817328,0.003919685113942789,1.6223624729933574e-05,0.0013649375270073127,0.1532529328889557,6.0,1.1013333333333335,0.036740578579473805,0.053457362904404206,0.088,0.152,0.0070198070681783895,-1.0,-1.0,-1.0,-1.0,-1.0,-1.0,-1.0,-1.0,-1.0,-1.0,-1.0,-1.0,-1.0,-1.0,-1.0,-1.0,-1.0,-1.0,-1.0,-1.0,-1.0,-1.0,-1.0,-1.0,-1.0,-1.0,-1.0,1
57,2,1,0.0752209352426549,0.10215222586775109,0.08176538327163833,0.006685577901557913,-0.000567491213390643,0.00791305640116408,0.33969700077125464,0.00011178224219044193,0.011568798059534998,1.6825370442779498e-05,0.004077618575404188,0.33178394437009057,9.0,0.4346666666666667,0.08415582681408014,0.09665184676015624,0.11199999999999999,0.15771428571428572,0.012498465943831232,0.7676919110647975,0.7640608038603047,0.15496891023398443,0.024015363139108726,0.0021864817481729547,0.4798102641495977,0.9837561064808771,0.0020443891048070226,0.0017380709446796726,-4.960256505791236e-06,8.936753819262037e-05,0.5039458423312794,0.6773738420708766,0.6764743331691409,0.04573670084552742,0.0020918458042332683,0.0005321449902574075,0.5554404125978801,0.7511431950773176,0.0007123441894208125,0.003978073819366586,3.0660870375444813e-06,0.0013985789853740004,0.1957027824794375,8.0,1.215,0.03191746530005479,0.04601163635067909,0.10133333333333333,0.17066666666666666,0.006876956577789389,55.42268041237113,1082.5892857142858,151.88415925182144,0.0,78.125,1.0,1.0,171.875,0.0,0.0,0.0,1.7282077350739722,0.13199577613516367,0.0,2714.4881533238004,0.0,0.19464339147468737,0.018818821110289305,23.363009463805856,545.8302112058819,-91.11836933240882,62.507959420547536,-0.0013864552786101833,1.3201177132152475,-3.0286286443385996e-05,0.12203554225236393,153.62632875295634,1
58,2,1,0.0637870851697517,0.07605769121970338,0.05247459688222487,0.0027535833179520037,-0.00016957739866196194,0.005990664343652941,0.25132906452548526,-0.0001044570777494572,0.008860678511014715,-5.015476122097781e-05,0.003159476873319407,0.2453384001818323,9.0,0.4328888888888889,0.06679791465775332,0.07808875414237314,0.11885714285714287,0.16914285714285712,0.011101694616150019,0.8971415181294915,0.8751636492576164,0.10903203916788867,0.01188798556510801,0.0015087735184825992,0.6599948154100208,1.0283911766262583,0.0015473357965593646,0.0015765982243021398,-1.390290421701366e-05,8.356924783220867e-05,0.36839636121623753,0.7105318286685303,0.7044357091365824,0.036171881291206714,0.0013084049961451505,0.00044029122986218976,0.646604790213359,0.8097760846054165,0.0004781522340606553,0.0031152800680166984,-1.5775794933771865e-05,0.0011323236248320225,0.16317129439205746,8.0,0.858,0.02494426707622982,0.03608398726200024,0.12266666666666669,0.19733333333333333,0.004499585765226644,-1.0,-1.0,-1.0,-1.0,-1.0,-1.0,-1.0,-1.0,-1.0,-1.0,-1.0,-1.0,-1.0,-1.0,-1.0,-1.0,-1.0,-1.0,-1.0,-1.0,-1.0,-1.0,-1.0,-1.0,-1.0,-1.0,-1.0,1
59,2,1,0.05566713827566906,0.06856826394813206,0.04809242297824624,0.0023128811479185465,0.00012960065895836463,0.005990664343652941,0.25132906452548526,8.666946969921515e-07,0.008305020378645677,-2.0224700740891106e-05,0.002770333034057945,0.2453384001818323,10.0,8640.015200000002,0.05518097791309251,0.06892520033354785,0.1297777777777778,0.18488888888888888,0.017155600824703115,0.9775985337242841,0.9455704835376212,0.08738877432548671,0.007636797878110846,0.0011125761705824417,0.7672918631276422,1.0394684831632328,0.0010187455480469055,0.001609552409180366,8.213400969870472e-06,9.357460117523505e-05,0.2721766200355906,0.7264261955573476,0.7251480542144673,0.03529632197350587,0.0012458303448573934,0.00040900150588683143,0.648334274441323,0.8097760846054165,0.00033477604917933867,0.0029078658776216263,-1.2350951637898668e-05,0.0009954640920758783,0.16144181016409354,8.0,0.8540000000000001,0.021727113637019624,0.0323276470763285,0.15999999999999998,0.2304,0.009339654423050582,68.57142857142857,875.0,106.63009743300167,59.76046581807566,85.45188206076723,0.7272727272727273,0.36363636363636365,54.6875,59.743581945491734,65.41806215721277,12278.315964550573,0.9132582038568473,0.08167265599477296,0.0,14642.514083864178,0.0,0.5695160983844134,-0.018725182964523916,19.22797791452363,369.71513468140853,-81.67886782896105,62.507959420547536,-0.003524221682642777,1.2484614674170207,0.0004577794154559278,0.12808825757635128,144.18682724950858,1
60,2,1,0.06737327509905451,0.09820847803833936,0.09510046673888978,0.009044098773954682,0.000608115620709187,0.005990664343652941,0.4967949786145151,1.9582935200867664e-05,0.015032141143172655,-7.169338199593818e-05,0.004369830411999362,0.4908043142708622,8.0,0.48700000000000004,0.0951162756195212,0.1309341080792432,0.14200000000000002,0.202,0.03184303001421841,1.007248279775451,1.0344351309797595,0.09095788706238035,0.00827333721885274,0.0010783745375748074,0.8993335383353426,1.3106097071521368,0.0017307021070023867,0.002324150194656897,-2.2820188013949103e-06,0.00010849812678393343,0.4112761688167942,0.7425623024289857,0.7640821011952283,0.05209571881195274,0.002713963918534047,0.0005543204599513679,0.7123703118502246,0.9171816168361003,0.0005770931428261255,0.005085742650181163,-2.4290052167631634e-05,0.001497423890558283,0.20481130498587574,7.0,1.7691428571428571,0.032820266624187945,0.0562285923127999,0.17333333333333334,0.248,0.01783912323561463,66.6802860061287,899.8161764705883,110.36302994222152,79.70843572879448,114.1637129975397,0.7692307692307693,0.46153846153846156,62.5,80.43910039303908,67.91663074320509,17163.0003208736,1.1843800187494848,0.3270325070311989,16085.248357206332,10655.366262525722,1.5095913139820614,0.3339223269026307,0.12680599884173252,19.77869602486177,391.1968164438828,-97.67534806077646,87.87504719457519,0.001225520001212195,1.2107251171292066,-4.995302829459332e-05,0.12379368400727442,185.55039525535165,1
61,2,1,0.086242391912448,0.12115857150994556,0.10287898260042225,0.010584085060897985,0.000526874230641229,0.005990664343652941,0.4967949786145151,-3.590956251038763e-05,0.017429356981579703,-2.5897115153498614e-05,0.0054851217805066774,0.4908043142708622,8.0,0.483,0.13013594840502168,0.16379332969792704,0.1417142857142857,0.19885714285714284,0.04120979803384296,1.0385644851953697,1.150688069992166,0.1833004729618678,0.03359906338804443,0.002429252331484765,0.9689325301435475,1.542437849930565,0.0023906571214317275,0.002282079961264284,1.3023560974673281e-05,9.682519412505176e-05,0.5735053197870176,0.7878323349160551,0.8098492775935799,0.07693166569990782,0.005918481187362374,0.0009715400224272374,0.7180486338882331,0.9799729476655102,0.0007715771805574509,0.005864572781117294,-7.4397764742651504e-06,0.001810012306856002,0.2619243137772771,7.0,1.358857142857143,0.04570576003668566,0.07117053663300289,0.19733333333333333,0.26133333333333336,0.02289750373708277,66.65380906460945,900.1736111111111,107.26371107391711,79.70843572879448,114.1637129975397,0.7692307692307693,0.46153846153846156,62.5,80.43910039303908,67.91663074320509,17163.0003208736,1.1843800187494848,0.1234949058351343,182193.0257659308,90471.55946648357,2.013815466875275,0.4059231191980452,0.15856928946668677,16.231195255899575,263.4516994351369,-97.67534806077646,87.87504719457519,-2.5956804813136633e-05,1.014664043644079,7.226666708090724e-05,0.10879346949078729,185.55039525535165,1
62,2,1,0.11975248626204792,0.13709362636531458,0.09508227959826686,0.009040639893602993,0.00019820893212515667,0.012848391988011368,0.4967949786145151,-6.720196245227761e-05,0.01726379476851432,1.1385380212693214e-05,0.005651613743656856,0.48394658662650375,9.0,0.11555555555555556,0.11860133218168015,0.13262148084908737,0.11399999999999999,0.162,0.02757183660093495,1.31250316210206,1.2979527541827147,0.22645870477606372,0.05128354496885239,0.0031762373520067767,1.0024228871187049,1.5953715145482006,0.0023603712078488987,0.0023038212490838475,-3.7145610556135744e-06,9.981360579511976e-05,0.5929486274294957,0.878196997210181,0.8634785515879054,0.0839534381033025,0.007048179769365045,0.0011091220899287389,0.7337381850224988,0.9950469793490105,0.0007518244493905503,0.005876600419741644,7.82768670398321e-06,0.0019349389835705828,0.2613087943265118,9.0,0.760888888888889,0.037757410838209764,0.054157220069740206,0.15466666666666665,0.2133333333333333,0.018099560279601613,65.02673796791444,922.6973684210526,85.65274056770748,93.19278852643768,138.99518501852262,0.8,0.5333333333333333,62.5,96.81337645754904,65.20200981053675,19831.073414828006,1.4848219669741505,0.11414222120762468,14649.035410563185,28311.779726817622,0.5174183873960864,0.5102221308063266,0.266651646887352,15.433531562923827,238.19389650376598,-97.67534806077646,87.87504719457519,0.003157262749303108,0.9127671975882958,-0.0002765798892884662,0.09045608621240242,185.55039525535165,1
63,2,1,0.1265972708572042,0.1482960735520231,0.10532328480146948,0.011092994321371452,-0.0003767353902952103,0.012848391988011368,0.4967949786145151,-9.004740038028786e-05,0.018404763195183787,1.0333501238737654e-05,0.005986934391042291,0.48394658662650375,8.0,0.47500000000000003,0.14411904865066047,0.16404180993725306,0.11657142857142856,0.1622857142857143,0.03502145958328403,1.543779836736356,1.4368638292023626,0.18076480572276837,0.03267591498799019,0.0023341652143217093,1.0130180766230787,1.5968379971089042,0.00223129523010898,0.002418659298164407,-1.222875486488311e-05,7.663793611306345e-05,0.5838199204858254,0.9197403395857566,0.9127969147302089,0.06315895996507723,0.003989054223870228,0.0006440039238580345,0.7337381850224988,1.0413187505515327,0.0007104656291200928,0.00628484168081137,3.1587085912186673e-06,0.002059264063564966,0.3075805655290339,8.0,1.201,0.04628675729371384,0.06635020906960717,0.17279999999999998,0.23359999999999997,0.023809378633617293,63.1390134529148,950.2840909090909,146.5479588241924,65.10208329999894,240.2391386722821,1.0,1.0,109.375,169.64461935174955,74.80443252241135,39867.34321459579,2.26784180604437,0.2871088142405972,0.0,57595.08541528301,0.0,0.48968744919618856,-0.04711184088210917,13.780802765155356,189.9105248521135,-97.67534806077646,87.87504719457519,-0.0004886519329113961,0.7750146629840365,0.00014821102399349638,0.07279108491554497,185.55039525535165,1
64,2,1,0.12560375740044577,0.13122373467462817,0.09174980185086419,0.008418026139672841,-0.00021572133280466554,0.00488895494565772,0.3789401141511266,0.00034255832985829435,0.014717286426535383,6.493321901018646e-05,0.0051674745097616305,0.3740511592054689,8.0,0.8300000000000001,0.11337133954150158,0.13882244888506154,0.11733333333333333,0.16533333333333333,0.03109017509153122,1.5698234455880107,1.5472688237836176,0.08273684113274685,0.00684538488062539,0.0009169232290625881,1.3143966170519832,1.7277934506642576,0.0017422844945855082,0.0021687739505162596,8.27163060043203e-06,7.347854821790059e-05,0.4133968336122744,0.9385555865795436,0.9435046171254143,0.040862115958107466,0.001669712520573821,0.0002304078545838321,0.8455387471088716,1.0413187505515327,0.0006857918451903584,0.005109388360781438,2.8913258375019153e-05,0.001797918896539787,0.1957800034426611,7.0,0.9440000000000001,0.04091428293704543,0.05826489092449776,0.13866666666666663,0.18666666666666665,0.014976626794640313,63.08871851040526,951.0416666666666,162.36639806998932,146.76044587088927,254.83603797343892,0.7777777777777778,0.6666666666666666,125.0,179.37481180357486,130.3933870182319,73479.61930193138,1.3756434732268614,0.2103934357248054,18377.79947614371,294812.25785813946,0.06233729767432843,0.5102221308063266,-0.11695962013093103,6.46623768747552,41.81222983092876,-27.403480971195243,18.018993875312205,0.0010296037262748402,0.42520596661864224,4.6140202121889215e-05,0.042474455365745116,45.42247484650745,1
65,2,1,0.12631451840921393,0.1433140773958522,0.12025140822594187,0.01446040118032212,0.000140483851540171,0.00488895494565772,0.5120532546688656,0.0005576056134185644,0.016307644996149794,8.395261476068086e-05,0.005078089360803729,0.507164299723208,6.0,1.0773333333333335,0.12875239162238714,0.17788509410188183,0.14,0.196,0.05217551726448945,1.5910727860942737,1.6417289228744534,0.10145936614055207,0.010294002977642602,0.0011672279941482447,1.5451218235421469,1.8279947706863267,0.0011437649558637662,0.0021137017931588445,-5.482649432351587e-06,0.00010733390745448701,0.28287294714417976,0.9704426684109758,0.9785245366789991,0.058851044932716756,0.003463445489672647,0.0004296400240959267,0.9018148490678457,1.143988500027803,0.0005610731781148001,0.005685004638035874,2.500492469237695e-05,0.001788702811427111,0.24217365095995724,4.0,1.552,0.03926113831623346,0.05911988270970131,0.096,0.144,0.009040290117617089,62.305721605465415,962.9934210526316,174.0820117982253,138.34129394171308,240.81691896861912,0.8461538461538461,0.7692307692307693,140.625,170.07105361179842,160.39257036165648,85696.78359647667,1.0603424661648522,0.2733734281027884,38483.67382921347,400575.4418797515,0.0960709764148893,0.5606888442367323,-0.10008447252985603,7.031858754570808,49.44703754423412,-33.72540978853772,15.787132620822426,0.001985196482395428,0.43218383279609285,4.506629175096429e-05,0.04221225323187683,49.512542409360144,1
66,2,1,0.1290949619803039,0.14777927511544384,0.12191587766006919,0.014863481225624956,7.063415204438532e-05,0.00488895494565772,0.5120532546688656,-0.00047435704539131496,0.016509566697876173,-5.3368304157363176e-05,0.004932372375194447,0.507164299723208,7.0,12342.853714285715,0.1281567433464296,0.20066137785186813,0.144,0.2112,0.054344030977566585,1.7306438780348086,1.7202067075069765,0.13868023277309,0.019232206961998424,0.0018714788382242548,1.5461759102119705,1.9340373925755512,0.0012282980804782032,0.0024555729943601147,-1.6228138959197926e-05,0.00014084812661801347,0.38786148236358065,1.0100988907717834,1.0058032323184325,0.06662848647897715,0.0044393552104792415,0.0006380806705189754,0.9018148490678457,1.143988500027803,0.00024779886985188657,0.005722148153528845,-2.293548987487686e-05,0.0016568239073190335,0.24217365095995724,3.0,2.042666666666667,0.030353439204862553,0.06282410836107037,0.12,0.184,0.007626579602596104,58.53658536585366,1025.0,138.20840242184988,112.5,163.57815410378,0.8,0.6,125.0,115.32901304528707,103.17233762011985,37381.069164886925,1.117828826074757,0.1952171791117618,0.0,52723.84779508553,0.0,0.2191143462498873,-0.0019842490527389807,8.043100454510727,64.69146492135066,-44.8281641573084,44.66781829039472,0.00037653798961809133,0.44989387137055165,2.2291835226325087e-05,0.04033137251455687,89.49598244770311,1
67,2,1,0.13181897285625982,0.15148969738247958,0.13130021078428294,0.01723974535199713,4.081141323107245e-05,0.00488895494565772,0.5120532546688656,0.0004162011632180617,0.018085312507691836,-5.833619623780648e-05,0.004964383627870433,0.507164299723208,7.0,0.9577142857142859,0.12019979485471456,0.2164690620965302,0.14079999999999998,0.2144,0.06138468154521974,1.8243694128558299,1.785714730777581,0.11615399660087675,0.013491750926356487,0.001332538083961545,1.5461759102119705,1.9340373925755512,0.0012257639968342121,0.0026013722573645054,-1.878430183217585e-06,0.00015545658967696969,0.38786148236358065,1.0280641590112616,1.0285537978865178,0.06083827953924956,0.003701296257295871,0.0004509711596531024,0.9018148490678457,1.143988500027803,0.0005379685708491704,0.006212295549869049,-1.907521396803773e-05,0.0016432463524874404,0.24217365095995724,4.0,2.282,0.03410782277700175,0.08352848376031338,0.13333333333333333,0.2133333333333333,0.018289225704593248,57.142857142857146,1050.0,131.6214980540793,109.65366287201718,149.46192554460148,0.6666666666666666,0.5,62.5,105.54106317270544,94.27299145780184,31257.81566577825,1.1195259802479842,0.09528346831824677,0.0,70013.96869420617,0.0,0.4963429208959337,0.17534864539761694,12.196936970723915,148.76527146781186,-53.782506868977976,44.66781829039472,0.0011362382456055475,0.7064611686420114,-8.691734469579515e-05,0.06279271767061381,98.4503251593727,1
68,2,1,0.07668190998491975,0.13678523755667843,0.12963039346350502,0.016804038909503126,-0.000778903676786755,0.00652790745336617,0.5120532546688656,-0.0004930834073628323,0.01677879724515733,-0.00012342621471766435,0.004308313565774178,0.5055253472154995,6.0,1.0853333333333335,0.11702350418813419,0.2168741786077548,0.12799999999999997,0.19199999999999998,0.05774129992856469,1.8260768889009977,1.8230939045272112,0.06262772882880374,0.0039222324182541755,-0.00035442828035492255,1.683044620152807,1.9340373925755512,-0.00019865302702380173,0.0026220032814294517,-2.3807383255525458e-05,0.00015739802839710124,0.2509927724227441,1.0293073887704411,1.0360105995685178,0.04947207758961306,0.002447486461032695,-0.00037294535742790494,0.9505543030575905,1.143988500027803,-0.00022359039149610975,0.005798596992643193,-4.4291720635990815e-05,0.0014390424760969101,0.19343419697021247,3.0,2.042666666666667,0.032090794307819394,0.0756082605393064,0.13333333333333333,0.2133333333333333,0.018289225704593248,59.07692307692308,1015.625,148.23176532039278,0.0,15.625,0.0,0.0,31.25,0.0,0.0,0.0,1.2206221387267866,0.1970055161544523,0.0,46728.23457381154,0.0,-0.05803929644976537,0.04615983463502786,13.346478809808188,178.12849662065898,-53.782506868977976,46.11917131227199,-0.0008603833378234905,0.7194473102131127,-3.851548675650711e-05,0.06370508796037112,99.90167818124996,1
69,2,1,0.07018652791249035,0.11672790445661238,0.10823849249054918,0.01171557125662667,-0.0002812888509417808,0.00652790745336617,0.45193735751989705,-0.0007448692578676424,0.015583265654360308,-2.168885020560764e-05,0.00412636674063574,0.4454094500665309,6.0,0.6120000000000001,0.09432480214267673,0.16849100708198564,0.12266666666666666,0.18133333333333332,0.03893937862274594,1.8228650829411512,1.8063781612107197,0.07489119236742671,0.0056086906942149125,-0.0008422709767163181,1.683044620152807,1.9340373925755512,-3.172328158765706e-05,0.002540281144405968,-3.0314253693141763e-06,0.0001427301165983264,0.2509927724227441,1.011970520607126,1.023925283522071,0.04692172899116198,0.0022016486515200506,-0.0003699639970801881,0.9505543030575905,1.143643548508142,-0.00025506776052390453,0.0052963350022097256,-1.8236368049457988e-06,0.001367258606359211,0.1930892454505515,4.0,2.282,0.04441785186133962,0.08953020946823065,0.14,0.21999999999999997,0.02159468265374514,60.11741682974559,998.046875,139.63136368527444,121.25465340440432,206.10790559801436,0.6666666666666666,0.6666666666666666,85.9375,141.01027469459254,60.06543018057703,26608.79594710919,2.347611167865907,0.12528188423953895,0.0,39442.929508548346,0.0,0.14452180958485558,0.0711115954757366,13.417821884714673,180.03794412992804,-53.782506868977976,46.11917131227199,-0.00453760675848735,0.7425335289726666,1.4282555490500801e-05,0.06645216243615251,99.90167818124996,1
70,2,1,0.06539817646366189,0.09895042160161231,0.10415483280151838,0.01084822919591225,-8.581146083057365e-05,0.00652790745336617,0.45193735751989705,0.0003042403998670413,0.01525520202050298,-4.4516079372280794e-05,0.0040576195521964025,0.4454094500665309,6.0,1.088,0.09104538443525005,0.1720158701018971,0.1248,0.18560000000000001,0.04192714008506216,1.8014766854369222,1.785231031775688,0.05474749363560005,0.002997288059380068,-0.00017850606951554205,1.683044620152807,1.8884744276107153,-0.00016086359859420935,0.002263812669009113,2.9903193401550435e-05,0.00012124558728150531,0.20542980745790818,1.004038936190999,1.0111281365005738,0.040582346367413605,0.0016469268366847284,-8.735738606499315e-05,0.9505543030575905,1.143643548508142,3.644215305202425e-05,0.0052059877219086705,4.555871618066679e-06,0.0013747339050879288,0.1930892454505515,4.0,2.282,0.04246580134716238,0.08761637875580561,0.13333333333333333,0.21333333333333335,0.024228543257517905,65.08474576271186,921.875,160.8692209529219,125.64935501890436,188.58194781491326,0.6666666666666666,0.6666666666666666,140.625,121.3664603930317,169.3309188230089,64563.16672735155,0.7167412852692812,0.21701388888888887,0.0,78855.82047497129,0.0,0.16481612353437147,-0.012162094795022105,12.646197643731025,159.92631484430814,-53.782506868977976,46.11917131227199,0.002124461117279473,0.7317946137973474,3.5629312874327704e-05,0.06683604305757003,99.90167818124996,1
71,2,1,0.06648735014862622,0.0841640540148272,0.07091862399049541,0.005029451228705271,1.8656594166181194e-05,0.012033278953336179,0.3968860494209008,-0.00020569429345683495,0.011642041594046205,6.132032941641965e-05,0.0037276276134367795,0.3848527704675646,8.0,0.47500000000000003,0.0717022036031329,0.09134239039373321,0.104,0.14933333333333335,0.017107340270464445,1.8014766854369222,1.7969949767934716,0.06867081511369583,0.004715680848379394,0.0007326871770717865,1.683044620152807,1.9095965874636724,5.1368638837435975e-05,0.0022974544863783456,-1.9775220723957284e-06,0.00011883823082737736,0.22655196731086535,1.0102461445130082,1.0101398822681822,0.03209912287389033,0.0010303536892731092,0.00024643360208652544,0.9505543030575905,1.087506048179724,-4.896649076000005e-05,0.004023533940031874,1.771255980787719e-05,0.0012669509518014575,0.1369517451221336,6.0,1.08,0.030007934487365755,0.042837207279212676,0.10400000000000001,0.164,0.009679565781172338,62.495479204339965,960.0694444444445,119.92997249423989,109.86497394529341,159.49750193968558,0.8,0.6,140.625,112.23928122542482,113.01963325015703,39851.8643339728,0.9930954295082078,0.3473428273706148,0.0,30494.936838861882,0.0,-0.10094527693634514,-0.13647523431532063,9.101303345201782,82.83372258138114,-27.565528563431183,46.11917131227199,0.0008202738404414961,0.5106244110442488,-2.9858819197190895e-05,0.04761530478058343,73.68469987570317,1
72,2,1,0.07831216898882634,0.09378719753497693,0.07096327299168799,0.005035786113692834,-0.0001501027541938538,0.012033278953336179,0.3968860494209008,0.0001930679205196719,0.012397732943966056,-1.3677937304242225e-05,0.003935682644102798,0.3848527704675646,9.0,0.4435555555555556,0.07731176330343331,0.10254206485358217,0.10666666666666667,0.16533333333333333,0.021321853840009366,1.8384249917223596,1.81970088480861,0.05901536874641632,0.0034828137482754928,0.0006443297734332244,1.6830853024403143,1.9095965874636724,0.0006856199050938765,0.0016664075848417442,4.3637894383020497e-07,0.0001028726531143281,0.22651128502335816,1.0221971648573291,1.0207694260226219,0.02730629906881891,0.0007456339688357805,0.0001621121777099337,0.9542269062457998,1.087506048179724,0.00028388227616207157,0.004200046550599851,-1.890577381779765e-06,0.0013238240876571072,0.13327914193392432,7.0,0.9462857142857144,0.030386601107682636,0.04294722678011943,0.11200000000000002,0.1728,0.009557718126417165,60.67720090293454,988.8392857142857,156.18621146907054,103.90592366281251,275.5498763835687,1.0,1.0,125.0,73.47258322742648,131.45239025129126,30341.96266717765,0.5589292297155833,0.28901734104046245,0.0,56083.05448046226,0.0,-0.030887847570553295,-0.13782197850346142,7.248947645938565,52.547241973558265,-25.832960412020057,20.453665394287302,-0.00015474343672479824,0.4452495167494505,5.55191815119301e-05,0.0400725317196489,46.286625806307356,1
73,2,1,0.06905178785152463,0.07936889496947414,0.047654466813784685,0.002270948207306106,-8.382647219315713e-05,0.012033278953336179,0.2692534239651111,0.0011291772181975341,0.009149043780624137,9.93550306926442e-05,0.0028529965428755197,0.2572201450117749,9.0,0.4382222222222223,0.05494930715370483,0.06636407316366881,0.12342857142857143,0.18057142857142858,0.010683358070564915,1.8487414836133322,1.849606093552515,0.031237439206543312,0.0009757776081824893,0.00018338433810309154,1.7929196419960587,1.9095965874636724,0.0003036909127488163,0.0013945608266990744,2.9626719457840715e-06,8.964002274110849e-05,0.11667694546761376,1.0226956533858158,1.0258648037552973,0.019475635548205052,0.00037930038000650825,3.231036610236865e-05,0.9847607990155883,1.0978522807649014,0.0004610995743540805,0.003172548894700008,2.8851531776396405e-05,0.000991256796175751,0.11309148174931305,7.0,0.5382857142857144,0.020465386075821077,0.026574140729837135,0.10880000000000001,0.1664,0.003949580708542937,68.92307692307692,870.5357142857143,151.19369840960803,70.3125,282.3329843686352,1.0,1.0,171.875,193.34951048069655,60.76698900821896,36911.41270849825,3.18181818181818,0.32829940906106364,0.0,37735.26489750996,0.0,0.06151139297827195,0.07819058971649112,6.3233810085923094,39.9851473798259,-25.832960412020057,20.453665394287302,0.0024042870342568423,0.36920388457141395,-0.00013839319234764863,0.03257976678362391,46.286625806307356,1
74,2,1,0.07485690663476416,0.10293148262136521,0.08385532935719726,0.007031716261604029,0.00042529764582943165,0.012033278953336179,0.4080528772200519,0.0004494985839290331,0.01216261303176852,-8.629762508757799e-05,0.0036227826651874413,0.39601959826671573,8.0,0.48300000000000004,0.06809267520863883,0.09318896471451221,0.13066666666666668,0.18933333333333335,0.011315704851826707,1.8687746242104368,1.881085201376031,0.03887779982019251,0.0015114833188589606,0.0002792392468432585,1.8383425696944249,1.9780585211291082,0.0005287237016696039,0.0012861568527900828,-9.924960888564826e-06,6.729277478080682e-05,0.1397159514346833,1.03237278762955,1.04395415532904,0.03593443870601531,0.0012912838851163709,0.00023118554776040354,1.0035222812206022,1.1716174657631697,0.00032206541144957077,0.004093818027975907,-3.469742125056495e-05,0.001184023766866971,0.16809518454256756,7.0,0.9577142857142859,0.030532055201390764,0.04459273838676906,0.1216,0.18239999999999998,0.006799844363401407,69.34537246049662,865.234375,154.66727692933102,72.54368894366729,325.885212728347,1.0,1.0,93.75,221.76738391712257,71.60274523368491,49885.83195493328,3.097191081059193,0.14450867052023122,0.0,53357.28204549414,0.0,0.08466345685568911,0.06583581677393198,6.097994456812194,37.18553639531225,-25.832960412020057,22.186581389456723,-0.0030992819568201307,0.3210702524009387,2.0298312076952758e-05,0.030510151313516837,48.01954180147678,1
75,2,1,0.07345110183483194,0.10196403389149387,0.08382848433783453,0.007027214786378569,0.00015397003694613644,0.014575041739258467,0.4080528772200519,-1.6251612752086336e-05,0.012592443776716332,-4.430632231003765e-05,0.003613827470122563,0.39347783548079346,7.0,12342.846857142855,0.07891849448706599,0.10867750419418645,0.15085714285714283,0.21257142857142855,0.02759352194272747,1.883636700312692,1.9143488082775695,0.0730888000697897,0.00534197269564169,0.0010073925690467687,1.8383425696944249,2.067263984516989,0.0008923358542114906,0.0007802343490121083,1.2179006285457233e-05,2.6940900457851003e-05,0.228921414822564,1.0469483498944165,1.0545822695656313,0.038850582412874854,0.0015093677538195807,0.0003816317679258878,1.0035222812206022,1.1716174657631697,0.0002964521013317951,0.004207226108656835,-8.6520483612867e-06,0.0011827399999382118,0.16809518454256756,6.0,1.5746666666666667,0.035529673930781325,0.053420665813873836,0.1536,0.21760000000000002,0.014523403644383731,66.9281045751634,896.484375,119.2366416374781,115.76099359840036,242.90049617418788,1.0,1.0,85.9375,166.91062873918816,65.26022961532114,34220.1936840494,2.557616326559822,0.4184684056353745,0.0,15796.630844124258,0.0,-0.11987472045025707,-0.013494229168947772,7.087101451434432,50.22700698292403,-22.599945737473707,22.186581389456723,0.0008222491707603054,0.4526353652610812,-5.980969958158627e-05,0.042474696682230535,44.78652712693043,1
76,2,1,0.06842046189508064,0.0982210096573368,0.08816628367807938,0.007773293577603568,-4.6012122555766783e-05,0.009343620767619954,0.4080528772200519,-0.00031168467083936003,0.012480537836635388,9.371334993230952e-06,0.0035409455538091697,0.39870925645243194,6.0,1.0853333333333335,0.07587047466934378,0.1161978332709156,0.13333333333333333,0.20533333333333334,0.03110875014815653,1.9786109146661472,1.9727247268097865,0.08505849352884984,0.007234947321397389,0.0012017787179106646,1.8476710118821704,2.0870752812652125,0.0008344189615000358,0.0009734265336031106,-8.518242517473184e-06,3.362979874476159e-05,0.23940426938304205,1.0724075048895898,1.0725416845579943,0.04044412872349175,0.0016357275482023704,0.0003800220414669066,1.0035222812206022,1.1716174657631697,0.00017366818865222067,0.004218658927724444,-1.4577289974393449e-06,0.0011720708177313458,0.16809518454256756,7.0,2.1862857142857144,0.028641283220213483,0.04798136582040275,0.13599999999999998,0.22133333333333335,0.012982683774327907,-1.0,-1.0,-1.0,-1.0,-1.0,-1.0,-1.0,-1.0,-1.0,-1.0,-1.0,-1.0,-1.0,-1.0,-1.0,-1.0,-1.0,-1.0,-1.0,-1.0,-1.0,-1.0,-1.0,-1.0,-1.0,-1.0,-1.0,1
77,2,1,0.063287911210032,0.09384254772927592,0.0899444645558819,0.008090006704244295,-0.0005990574891694308,0.0034289447009811006,0.4080528772200519,-9.819163497827762e-05,0.012692355876109878,0.00012598886003687928,0.003268239522873446,0.4046239325190708,6.0,1.088,0.07608497844181238,0.11920428919847469,0.1312,0.20800000000000002,0.035926184216896126,2.0281735090934636,2.0170615310362505,0.056404959799472944,0.0031815194899801587,0.0006244375417278669,1.8843372532167966,2.0870752812652125,0.0008348351281048581,0.0012653039636246058,7.851844645552266e-06,5.452871225854476e-05,0.2027380280484159,1.0776762085875928,1.0856680104053555,0.02927042443199682,0.0008567577464292364,8.244598501092711e-06,1.041429517428089,1.1716174657631697,0.0002489982419902212,0.004334859798543266,3.592131826652828e-05,0.001116109125217195,0.13018794833508074,6.0,2.050666666666667,0.02446753946148587,0.04253524662849791,0.132,0.22799999999999998,0.014486377395727335,54.23728813559322,1106.25,176.33419974582355,45.9987545121242,269.5784228043236,1.0,1.0,132.8125,186.2661952317465,34.15332564740629,19985.587312798794,5.453823067033946,0.36172906493036716,0.0,90049.5491314097,0.0,-0.07605177087759474,-0.11004433006252455,9.446548554109508,89.23727958514844,-29.609862064710857,27.36245771464237,0.001570623204610647,0.6166809903858215,6.287392705571927e-05,0.05578605278546668,56.97231977935323,1
78,2,1,0.057490795611154055,0.07790298420968927,0.06403376371166228,0.004100322895080997,3.548948636303188e-05,0.0034289447009811006,0.29414329026305963,-0.0008580522327477517,0.009900087758724864,6.520498165904428e-05,0.002880881263724865,0.29071434556207854,7.0,0.9485714285714286,0.0629749305839987,0.09601025484037619,0.11199999999999999,0.18666666666666665,0.022781026536554116,2.0640824857806797,2.0758363069559214,0.06302913454591397,0.003972671801606926,0.000696965186565788,1.9791633082031863,2.2068813070554993,0.0008701808137877058,0.0016387842181665713,-1.278371893145419e-05,8.014441729295088e-05,0.22771799885231303,1.089484967635896,1.0997803504846095,0.03214776481720686,0.0010334787827424431,0.00024131250014919125,1.0583062975230333,1.1759149417606864,7.4428625700969276e-06,0.0034133219473915562,7.477988524031559e-06,0.0009658745328817392,0.11760864423765316,6.0,2.048,0.023853371572107502,0.041042805032045604,0.11733333333333333,0.2293333333333333,0.007226159932959786,48.06007509386733,1248.4375,124.30470689499252,94.90034978275311,191.79117332835384,1.0,0.8333333333333334,39.0625,134.36086811994198,115.70239526834928,48838.8044059554,1.1612626325351174,0.08012820512820512,0.0,144441.76197367028,0.0,0.16252447706700113,-0.24748987506570103,10.340080783755221,106.91727061458397,-29.609862064710857,27.36245771464237,-0.002102174113285643,0.6550782143111054,-7.700917282952979e-05,0.05755684528764199,56.97231977935323,1
79,2,1,0.05677326688669266,0.07826110824454587,0.0646321370793825,0.004177313143448091,2.477067018386138e-05,0.0034289447009811006,0.29414329026305963,9.405349916699207e-05,0.009815474174213669,2.4261270196501502e-05,0.002932500886818659,0.29071434556207854,6.0,1.0826666666666667,0.07219517199394099,0.11464417865682046,0.1472,0.22400000000000003,0.03247998774897394,2.087067085600144,2.1085887278438507,0.0584764079923812,0.0034194902916914235,0.0005854630224311346,2.0203302350489127,2.2068813070554993,0.00038804392830980953,0.0017948927604365483,1.2440161664933891e-06,8.843691844565296e-05,0.1865510720065866,1.1156326022577654,1.1106117375699265,0.03138681955531027,0.0009851324417976073,0.00020038500666292442,1.0609447443606355,1.1759149417606864,0.00014977413271984226,0.003380912886592238,1.1595669970896478e-05,0.000989075819731022,0.11497019740005099,5.0,1.2864,0.027876273834405475,0.047478011460099445,0.16,0.256,0.010774419882389799,-1.0,-1.0,-1.0,-1.0,-1.0,-1.0,-1.0,-1.0,-1.0,-1.0,-1.0,-1.0,-1.0,-1.0,-1.0,-1.0,-1.0,-1.0,-1.0,-1.0,-1.0,-1.0,-1.0,-1.0,-1.0,-1.0,-1.0,1
80,2,1,0.06443555338042917,0.09465013298232344,0.08015160872135141,0.006424280380620615,0.0003531335760949379,0.0034289447009811006,0.3471573835014788,6.322106249923144e-05,0.012105006051192344,-7.456387978411466e-06,0.0036398352280861343,0.3437284388004977,7.0,0.5451428571428573,0.09208661584714357,0.1290637912580593,0.17333333333333334,0.23466666666666666,0.04126109787388655,2.1551787666808107,2.1396492514752583,0.06595940301427222,0.004350642845999184,0.0007821600321540377,2.0203302350489127,2.2175720741783396,0.0006492618617519504,0.0017502222254329172,3.5081604354461613e-06,8.956179382533166e-05,0.19724183912942683,1.1280709860487732,1.1262081209310846,0.039391656096008365,0.0015517025699861929,0.00037317392107179937,1.0609447443606355,1.2291290124416416,0.0002328384326492757,0.004117525129709448,1.1814781901005785e-06,0.0012264019620595325,0.16818426808100617,6.0,0.6306666666666668,0.03564075869837957,0.05398795940227452,0.184,0.256,0.010100723264426485,-1.0,-1.0,-1.0,-1.0,-1.0,-1.0,-1.0,-1.0,-1.0,-1.0,-1.0,-1.0,-1.0,-1.0,-1.0,-1.0,-1.0,-1.0,-1.0,-1.0,-1.0,-1.0,-1.0,-1.0,-1.0,-1.0,-1.0,1
81,2,1,0.07761567221809021,0.1130110168951891,0.08920520656155383,0.007957568877689485,9.747466217166914e-05,0.007960961138872538,0.3475412424436888,-0.0007057779125785045,0.013732426152247911,-0.00013758123578861548,0.004250255776874089,0.33958028130481627,7.0,0.1417142857142857,0.10259504124632943,0.1365341164605253,0.18057142857142855,0.24000000000000002,0.04034854224167365,2.1972811176027296,2.189702634455133,0.044075935594203246,0.0019426880985043526,0.00046663556932578386,2.0857029124669455,2.3120984331002257,0.0009542550872850793,0.0017795781842170374,-7.012279168713831e-06,9.541665699488782e-05,0.22639552063328017,1.1363780750317172,1.1487364599169827,0.03495989216604741,0.0012221940602616633,0.0001859571156915299,1.0998052064086814,1.2494750294785564,8.316114217241192e-05,0.00461224707833848,-4.404612289116104e-05,0.0014193736838319264,0.14966982306987497,5.0,0.16319999999999996,0.04467548962460928,0.06514749466900302,0.21866666666666665,0.29333333333333333,0.020716127298348538,59.44272445820433,1009.375,217.98975033244108,78.125,322.11762700137973,1.0,1.0,234.375,55.24271728019902,187.82523875267668,32597.091742569868,0.2941176470588235,0.19821605550049554,0.0,76030.17421712233,0.0,0.09576942204404129,-0.08352586532829412,11.239472303035186,126.32573765069506,-31.52423330051784,39.70808539268361,-0.0012899344480998868,0.5806090272635507,-9.334933134141603e-05,0.04643180523891137,71.23231869320145,1
82,2,1,0.08377384242501054,0.11569004807977097,0.0885821502831328,0.007846797348783524,0.0002544075707171951,0.007960961138872538,0.3475412424436888,0.0005502244889694837,0.01494329760493796,1.1210857258942421e-05,0.004704994177867285,0.33958028130481627,7.0,0.5565714285714286,0.13512224155244368,0.17952982691390437,0.19885714285714284,0.2651428571428572,0.05085384700142951,2.210069684713183,2.2306056242523806,0.07110498055256319,0.005055918259380389,0.0009650463059134377,2.1372053062454586,2.3939589659727654,0.000868776423705588,0.001608339785199527,2.5192374913017104e-05,9.280269160320164e-05,0.2567536597273068,1.1547503252491276,1.1630093316301937,0.04232389971278409,0.001791312486897805,0.0004014746223893425,1.0998052064086814,1.2559907478994785,0.00046959744555193685,0.0050450647890897355,2.581999324211548e-05,0.0016036599368977654,0.1561855414907971,6.0,0.636,0.04992012873775161,0.07111647503388148,0.2293333333333333,0.3093333333333333,0.024332143987302924,-1.0,-1.0,-1.0,-1.0,-1.0,-1.0,-1.0,-1.0,-1.0,-1.0,-1.0,-1.0,-1.0,-1.0,-1.0,-1.0,-1.0,-1.0,-1.0,-1.0,-1.0,-1.0,-1.0,-1.0,-1.0,-1.0,-1.0,1
83,2,1,0.10496841005245633,0.1283475014612247,0.08778928183193241,0.007706958004566457,8.305962941937327e-06,0.007960961138872538,0.3475412424436888,-0.00016565179074834693,0.01521299063816633,1.3286027821625976e-05,0.004882517207413605,0.33958028130481627,7.0,0.9531428571428572,0.1341673486102519,0.1775699893603037,0.1691428571428571,0.2377142857142857,0.04789770085736493,2.3129060546757976,2.3020889600874868,0.0953294115698984,0.009087696710263077,0.0013195765333645396,2.16194831579598,2.4606168644846185,0.001026676501365048,0.0017364629469194099,-1.2121620989099154e-05,0.00011137229231171378,0.2986685486886387,1.1956985789271346,1.1907219780795764,0.045089346143858795,0.002033049135680714,0.0004363932928398899,1.115156249741398,1.2820281523076327,0.00028323343638916816,0.005174076077379204,-2.5079227812530025e-08,0.0016411270454806534,0.16687190256623463,6.0,1.1013333333333335,0.050614325363780154,0.07126712692536304,0.172,0.256,0.019190796501959193,77.96954314720813,769.53125,79.95894332210437,0.0,31.25,1.0,0.0,62.5,0.0,0.0,0.0,0.6714726882683184,0.32499187520311995,0.0,0.0,0.12024515870251162,-0.1600497903063325,0.005840603659831197,9.387517815414661,88.12549073472763,-38.991655776030356,46.68017742092863,-0.000776083270188103,0.5278755363814295,1.2730172045533277e-06,0.04597747964387836,85.67183319695899,1
84,3,1,0.00014791719125816053,0.0012330666616249591,0.0020971622247448946,4.398089396896957e-06,1.9958964699069144e-05,2.8536771973211726e-07,0.010158844284528259,1.8056081467760456e-05,0.00030945097276488813,-2.276667686366049e-06,0.00012420846434319343,0.010158558916808526,0.0,0.0,0.0,0.0,0.0,0.0,0.0,-0.5409696329243912,-0.5413204792932625,0.0024271452940071545,5.8910342782210765e-06,1.5516440212273974e-05,-0.5457557992625088,-0.5371538455763805,-4.977789000402966e-07,0.00014766840646160252,2.5471612170162073e-06,1.2747141027826417e-05,0.008601953686128372,0.34179632596049453,0.34317547891474026,0.006729402339557145,4.5284855847637174e-05,6.236117711877693e-05,0.32808585720700933,0.36135490170982737,3.989368410364467e-05,0.0010354343061972414,-2.7029676896196675e-06,0.0005863821024283661,0.033269044502818035,2.0,3.0,0.0042172046703042865,0.017892125011274018,0.096,0.22399999999999998,0.0032179688057113504,88.43636363636364,678.453947368421,187.45310470803474,143.65707955092935,186.09968167048848,0.8571428571428571,0.42857142857142855,78.125,122.15757404028685,232.31449698674442,89155.18052714308,0.5258284593718532,0.07762167197081425,0.0,149970.73087630366,0.0,-0.04189061369271111,0.0018803206705905629,3.98114001954346,15.849475855210502,-15.449479458561125,17.033232884234504,-0.0012071819322284536,0.21635058330753434,6.9519763632086475e-06,0.021962357143553313,32.48271234279563,1
85,3,1,0.0011606376871400748,0.0024798628701187754,0.003489311475049069,1.2175294569909107e-05,3.129467317805177e-05,2.8536771973211726e-07,0.014937255670153084,4.911665619927195e-05,0.0005055134945163825,6.519826272273555e-07,0.0001962715794055012,0.014936970302433352,0.0,0.0,0.0,0.0,0.0,0.0,0.0,-0.5402466837560718,-0.5335810110917016,0.014662798453762706,0.00021499765849566598,0.000163582389856069,-0.5456292600194541,-0.4973432799361682,0.00019722671665284414,0.0003651373489749031,-7.552101983405307e-07,2.203281302499926e-05,0.048285980083285884,0.34374721504691974,0.3577936917248036,0.028078515437077477,0.0007884030291501982,0.0003215514956919245,0.32808585720700933,0.4390057387344856,0.0004128649261835777,0.001813163489101632,1.1881526347031977e-06,0.0009843253968723304,0.11091988152747628,4.0,1.552,0.019185885290449234,0.021866017144690206,0.136,0.272,0.005035915259526682,62.950819672131146,953.125,52.601588220635826,38.97559777889522,91.9975090242484,1.0,0.6666666666666666,23.4375,27.559909490256146,36.08439182435167,3124.2591444862037,0.7637626158259719,0.34989503149055284,0.0,2725.739424127912,0.0,0.013662582327580327,-0.010206710711848215,4.2964562795474555,18.459536562062762,-15.449479458561125,17.033232884234504,0.00013361071303563527,0.2382850269708064,-4.418226190345396e-06,0.025045407230711282,32.48271234279563,1
86,3,1,0.002334247131978532,0.004802807513565533,0.005962694479454631,3.5553725455318725e-05,4.9252280489729644e-05,3.996247372512327e-06,0.02650606244796118,6.124816796393368e-05,0.0008967074200386642,-7.199885406346324e-06,0.0003112242522110494,0.026502066200588665,0.0,0.0,0.0,0.0,0.0,0.0,0.0,-0.5370921680472129,-0.5179356008640001,0.027313643109269013,0.0007460350999005186,0.0003578687359159138,-0.5427079558834954,-0.4465794877941718,0.0003917158356140866,0.0005322032990419673,3.457633218222183e-06,3.079255364644463e-05,0.09612846808932363,0.3587331314363603,0.3874410447096969,0.05155961921816579,0.0026583943339222515,0.0006694773483872651,0.33605496164504467,0.5303279164527628,0.0007662128496021783,0.002356049293575074,-3.922125096010298e-06,0.0010669500556995779,0.1942729548077181,6.0,1.5533333333333335,0.020775501899014226,0.028019173079431414,0.12266666666666666,0.22933333333333336,0.003881962019188733,90.16008537886873,665.4829545454545,200.13418188952343,192.25453325098883,306.3722120096186,1.0,0.7333333333333333,85.9375,203.46392664166405,189.60050288552625,121192.78880345308,1.0731191296708111,0.2733734281027884,86879.52822845506,134228.03017724873,0.6472532459407342,0.24988775433715787,-0.017925545318399117,3.893634093572882,15.160386454633118,-15.449479458561125,11.604981848752812,-3.234059118342724e-05,0.20184363185888074,7.194286337077064e-05,0.021672908729150037,27.054461307313936,1
